# OpenSignals Text File Format. Version 1
# {"84:BA:20:AE:BF:DA": {"position": 0, "device": "bitalino_rev", "device name": "84:BA:20:AE:BF:DA", "device connection": "BTH84:BA:20:AE:BF:DA", "sampling rate": 1000, "resolution": [4, 1, 1, 1, 1, 10, 10, 10, 10, 6, 6], "firmware version": 1282, "comments": "", "keywords": "", "mode": 0, "sync interval": 2, "date": "2025-11-12", "time": "19:27:28.112", "channels": [1, 2, 3, 4, 5, 6], "sensor": ["RAW", "RAW", "RAW", "RAW", "RAW", "RAW"], "label": ["A1", "A2", "A3", "A4", "A5", "A6"], "column": ["nSeq", "I1", "I2", "O1", "O2", "A1", "A2", "A3", "A4", "A5", "A6"], "special": [{}, {}, {}, {}, {}, {}], "digital IO": [0, 0, 1, 1], "convertedValues": 0}}
# EndOfHeader
0	0	0	0	0	512	512	0	319	39	5	
1	0	0	0	0	514	512	0	163	39	5	
2	0	0	0	0	506	510	0	0	39	5	
3	0	0	0	0	514	510	0	0	39	5	
4	0	0	0	0	514	510	0	0	39	5	
5	0	0	0	0	507	510	0	0	39	5	
6	0	0	0	0	509	512	0	0	39	5	
7	0	0	0	0	503	513	0	0	39	5	
8	0	0	0	0	508	512	1	0	39	5	
9	0	0	0	0	518	512	0	102	39	5	
10	0	0	0	0	516	511	0	221	39	5	
11	0	0	0	0	509	511	0	322	39	5	
12	0	0	0	0	509	514	0	394	39	5	
13	0	0	0	0	511	514	0	455	39	5	
14	0	0	0	0	511	514	0	492	39	5	
15	0	0	0	0	509	515	0	468	39	5	
0	0	0	0	0	507	515	1	404	39	5	
1	0	0	0	0	510	512	0	349	39	5	
2	0	0	0	0	510	511	0	326	39	5	
3	0	0	0	0	514	511	0	320	39	5	
4	0	0	0	0	508	508	0	323	39	5	
5	0	0	0	0	515	509	0	344	39	5	
6	0	0	0	0	511	508	0	403	39	5	
7	0	0	0	0	508	510	0	479	39	5	
8	0	0	0	0	509	510	1	526	39	5	
9	0	0	0	0	514	508	0	541	39	5	
10	0	0	0	0	512	510	0	531	39	5	
11	0	0	0	0	510	510	0	502	39	5	
12	0	0	0	0	512	510	1	456	39	5	
13	0	0	0	0	511	511	0	401	39	5	
14	0	0	0	0	512	512	0	332	39	5	
15	0	0	0	0	508	513	0	257	39	5	
0	0	0	0	0	508	513	1	204	39	5	
1	0	0	0	0	504	512	0	196	39	5	
2	0	0	0	0	514	514	0	193	39	5	
3	0	0	0	0	512	512	0	177	39	5	
4	0	0	0	0	515	512	0	164	39	5	
5	0	0	0	0	510	511	0	171	39	5	
6	0	0	0	0	508	511	0	165	39	5	
7	0	0	0	0	510	512	0	143	39	5	
8	0	0	0	0	508	511	0	147	39	5	
9	0	0	0	0	505	511	0	163	39	5	
10	0	0	0	0	516	511	0	158	39	5	
11	0	0	0	0	507	512	0	164	39	5	
12	0	0	0	0	508	512	1	219	39	5	
13	0	0	0	0	511	512	0	318	39	5	
14	0	0	0	0	513	513	0	425	39	5	
15	0	0	0	0	518	513	0	512	39	5	
0	0	0	0	0	512	513	0	559	39	5	
1	0	0	0	0	504	513	0	543	39	5	
2	0	0	0	0	515	515	0	489	39	5	
3	0	0	0	0	504	514	0	436	39	5	
4	0	0	0	0	515	511	0	397	39	5	
5	0	0	0	0	509	512	0	395	39	5	
6	0	0	0	0	510	512	0	439	39	5	
7	0	0	0	0	514	511	0	459	39	5	
8	0	0	0	0	513	513	1	421	39	5	
9	0	0	0	0	510	512	0	352	39	5	
10	0	0	0	0	516	511	0	277	39	5	
11	0	0	0	0	503	512	0	211	39	5	
12	0	0	0	0	506	511	0	161	39	5	
13	0	0	0	0	514	511	0	150	39	5	
14	0	0	0	0	513	512	0	152	39	5	
15	0	0	0	0	518	513	0	153	39	5	
0	0	0	0	0	508	511	0	153	39	5	
1	0	0	0	0	502	510	0	161	39	5	
2	0	0	0	0	508	509	0	171	39	5	
3	0	0	0	0	509	511	0	188	39	5	
4	0	0	0	0	517	511	0	216	39	5	
5	0	0	0	0	510	512	0	235	39	5	
6	0	0	0	0	510	510	0	264	39	5	
7	0	0	0	0	518	512	0	350	39	5	
8	0	0	0	0	513	512	0	471	39	5	
9	0	0	0	0	515	512	0	556	39	5	
10	0	0	0	0	511	512	0	583	39	5	
11	0	0	0	0	502	513	0	573	39	5	
12	0	0	0	0	504	513	0	567	39	5	
13	0	0	0	0	508	512	0	583	39	5	
14	0	0	0	0	508	514	0	609	39	5	
15	0	0	0	0	510	514	0	659	39	5	
0	0	0	0	0	518	515	0	744	39	5	
1	0	0	0	0	511	514	0	816	39	5	
2	0	0	0	0	512	514	0	854	39	5	
3	0	0	0	0	502	512	0	856	39	5	
4	0	0	0	0	511	511	1	845	39	5	
5	0	0	0	0	515	512	0	856	39	5	
6	0	0	0	0	516	512	0	888	39	5	
7	0	0	0	0	507	513	0	926	39	5	
8	0	0	0	0	514	513	1	951	39	5	
9	0	0	0	0	511	511	0	1003	39	5	
10	0	0	0	0	507	512	0	1018	39	5	
11	0	0	0	0	508	512	0	1018	39	5	
12	0	0	0	0	511	512	1	1019	39	5	
13	0	0	0	0	510	512	0	1018	39	5	
14	0	0	0	0	506	511	0	1018	39	5	
15	0	0	0	0	508	512	0	1018	39	5	
0	0	0	0	0	514	512	1	1019	39	5	
1	0	0	0	0	509	510	0	1018	39	5	
2	0	0	0	0	513	512	0	1018	39	5	
3	0	0	0	0	512	512	0	1018	38	5	
4	0	0	0	0	512	512	1	1019	39	5	
5	0	0	0	0	509	511	0	1018	39	5	
6	0	0	0	0	515	512	0	1018	39	5	
7	0	0	0	0	507	512	0	1018	38	5	
8	0	0	0	0	507	513	1	1019	38	5	
9	0	0	0	0	519	512	0	1018	38	5	
10	0	0	0	0	508	512	0	1018	38	5	
11	0	0	0	0	505	512	0	1018	38	5	
12	0	0	0	0	503	514	1	1019	38	5	
13	0	0	0	0	506	513	0	1018	38	5	
14	0	0	0	0	513	513	0	1018	38	5	
15	0	0	0	0	512	513	0	1018	38	5	
0	0	0	0	0	512	513	1	1019	39	5	
1	0	0	0	0	511	510	0	1018	38	5	
2	0	0	0	0	512	509	0	1018	38	5	
3	0	0	0	0	511	512	0	1018	38	5	
4	0	0	0	0	514	512	1	1019	38	5	
5	0	0	0	0	517	512	0	1018	38	5	
6	0	0	0	0	514	512	0	1018	38	5	
7	0	0	0	0	512	514	0	1018	38	5	
8	0	0	0	0	504	513	1	1019	38	5	
9	0	0	0	0	507	511	0	1018	38	5	
10	0	0	0	0	509	511	0	1018	38	5	
11	0	0	0	0	509	512	0	1018	38	5	
12	0	0	0	0	507	512	1	1019	38	5	
13	0	0	0	0	511	511	0	1018	38	5	
14	0	0	0	0	518	511	0	1018	38	5	
15	0	0	0	0	506	510	0	1018	38	5	
0	0	0	0	0	511	508	1	1018	38	5	
1	0	0	0	0	510	508	0	1018	38	5	
2	0	0	0	0	510	508	0	1018	38	5	
3	0	0	0	0	507	510	0	1018	38	5	
4	0	0	0	0	510	512	1	1019	38	5	
5	0	0	0	0	513	511	0	1018	38	5	
6	0	0	0	0	515	513	0	1018	38	5	
7	0	0	0	0	509	514	0	1018	38	5	
8	0	0	0	0	505	515	1	1019	38	5	
9	0	0	0	0	513	513	0	1018	38	5	
10	0	0	0	0	511	512	0	1018	38	5	
11	0	0	0	0	508	513	0	1018	38	5	
12	0	0	0	0	514	509	1	1019	38	5	
13	0	0	0	0	513	507	0	1018	38	5	
14	0	0	0	0	515	507	0	1018	38	5	
15	0	0	0	0	502	509	0	1018	38	5	
0	0	0	0	0	510	510	1	1019	38	5	
1	0	0	0	0	517	508	0	1018	38	5	
2	0	0	0	0	516	508	0	1018	38	5	
3	0	0	0	0	505	512	0	1018	38	5	
4	0	0	0	0	510	511	1	1019	38	5	
5	0	0	0	0	510	511	0	1018	38	5	
6	0	0	0	0	512	510	0	1018	38	5	
7	0	0	0	0	511	513	0	1018	38	5	
8	0	0	0	0	510	511	1	1019	38	5	
9	0	0	0	0	508	509	0	1018	38	5	
10	0	0	0	0	507	510	0	1018	38	5	
11	0	0	0	0	505	512	0	1018	38	5	
12	0	0	0	0	509	510	1	1019	38	5	
13	0	0	0	0	513	511	0	1018	38	5	
14	0	0	0	0	519	510	0	1018	38	5	
15	0	0	0	0	507	510	0	1018	38	5	
0	0	0	0	0	510	511	0	1019	38	5	
1	0	0	0	0	513	513	0	1018	38	5	
2	0	0	0	0	512	514	0	1018	38	5	
3	0	0	0	0	506	513	0	1018	38	5	
4	0	0	0	0	511	513	1	1019	38	5	
5	0	0	0	0	507	513	0	1018	38	5	
6	0	0	0	0	512	514	0	1018	38	5	
7	0	0	0	0	512	515	0	1018	38	5	
8	0	0	0	0	508	514	1	1019	38	5	
9	0	0	0	0	511	513	0	1018	38	5	
10	0	0	0	0	509	515	0	1018	38	5	
11	0	0	0	0	512	515	0	1018	38	5	
12	0	0	0	0	515	515	1	1019	38	5	
13	0	0	0	0	505	515	0	1018	38	5	
14	0	0	0	0	511	514	0	1018	38	5	
15	0	0	0	0	507	515	0	1018	38	5	
0	0	0	0	0	510	514	1	1019	39	5	
1	0	0	0	0	511	512	0	1018	39	5	
2	0	0	0	0	510	512	0	1018	38	5	
3	0	0	0	0	506	515	0	1018	38	5	
4	0	0	0	0	511	512	0	1018	38	5	
5	0	0	0	0	511	511	0	1018	38	5	
6	0	0	0	0	509	508	0	1018	38	5	
7	0	0	0	0	508	511	0	1018	39	5	
8	0	0	0	0	510	511	1	1019	38	5	
9	0	0	0	0	512	510	0	1018	39	5	
10	0	0	0	0	512	511	0	1018	39	5	
11	0	0	0	0	512	513	0	1017	38	5	
12	0	0	0	0	510	513	1	1019	38	5	
13	0	0	0	0	505	512	0	1012	38	5	
14	0	0	0	0	509	513	0	958	38	5	
15	0	0	0	0	510	514	0	946	38	5	
0	0	0	0	0	511	512	1	963	39	5	
1	0	0	0	0	516	512	0	995	38	5	
2	0	0	0	0	508	512	0	1003	39	5	
3	0	0	0	0	516	512	0	964	38	5	
4	0	0	0	0	508	512	1	880	38	5	
5	0	0	0	0	504	512	0	794	39	5	
6	0	0	0	0	515	512	0	743	39	5	
7	0	0	0	0	510	511	0	739	39	5	
8	0	0	0	0	506	511	0	751	39	5	
9	0	0	0	0	506	511	0	757	39	5	
10	0	0	0	0	506	513	0	766	39	5	
11	0	0	0	0	511	512	0	775	39	5	
12	0	0	0	0	511	511	1	784	39	5	
13	0	0	0	0	510	511	0	809	39	5	
14	0	0	0	0	509	511	0	854	39	5	
15	0	0	0	0	510	511	0	910	39	5	
0	0	0	0	0	515	510	1	964	39	5	
1	0	0	0	0	514	510	0	1004	39	5	
2	0	0	0	0	513	510	0	1016	39	5	
3	0	0	0	0	509	510	0	1003	39	5	
4	0	0	0	0	514	510	1	955	39	5	
5	0	0	0	0	514	511	0	895	39	5	
6	0	0	0	0	508	511	0	837	39	5	
7	0	0	0	0	511	511	0	763	39	5	
8	0	0	0	0	512	513	1	673	39	5	
9	0	0	0	0	510	513	0	601	39	5	
10	0	0	0	0	507	514	0	548	39	5	
11	0	0	0	0	510	513	0	522	39	5	
12	0	0	0	0	509	512	1	531	39	5	
13	0	0	0	0	510	513	0	559	39	5	
14	0	0	0	0	509	512	0	609	39	5	
15	0	0	0	0	515	513	0	668	39	5	
0	0	0	0	0	513	513	1	685	39	5	
1	0	0	0	0	512	511	0	726	39	5	
2	0	0	0	0	515	513	0	749	39	5	
3	0	0	0	0	510	513	0	726	39	5	
4	0	0	0	0	512	513	1	660	39	5	
5	0	0	0	0	511	513	0	591	39	5	
6	0	0	0	0	515	512	0	505	39	5	
7	0	0	0	0	507	512	0	446	39	5	
8	0	0	0	0	509	511	0	432	39	5	
9	0	0	0	0	511	511	0	431	39	5	
10	0	0	0	0	503	512	0	427	39	5	
11	0	0	0	0	508	511	0	428	39	5	
12	0	0	0	0	506	510	0	443	39	5	
13	0	0	0	0	510	510	0	485	39	5	
14	0	0	0	0	517	511	0	563	39	5	
15	0	0	0	0	508	513	0	650	39	5	
0	0	0	0	0	509	513	1	724	39	5	
1	0	0	0	0	513	511	0	743	39	5	
2	0	0	0	0	510	510	0	691	39	5	
3	0	0	0	0	511	512	0	603	39	5	
4	0	0	0	0	501	511	0	510	39	5	
5	0	0	0	0	513	512	0	445	39	5	
6	0	0	0	0	509	512	0	435	39	5	
7	0	0	0	0	513	512	0	448	39	5	
8	0	0	0	0	511	513	1	445	39	5	
9	0	0	0	0	507	512	0	425	39	5	
10	0	0	0	0	505	512	0	396	39	5	
11	0	0	0	0	514	510	0	375	39	5	
12	0	0	0	0	510	511	0	351	39	5	
13	0	0	0	0	505	511	0	331	39	5	
14	0	0	0	0	510	513	0	312	39	5	
15	0	0	0	0	514	513	0	300	39	5	
0	0	0	0	0	507	513	1	308	39	5	
1	0	0	0	0	515	512	0	327	39	5	
2	0	0	0	0	512	513	0	366	39	5	
3	0	0	0	0	508	515	0	443	39	5	
4	0	0	0	0	509	514	1	541	39	5	
5	0	0	0	0	513	512	0	619	39	5	
6	0	0	0	0	508	512	0	656	39	5	
7	0	0	0	0	505	512	0	623	39	5	
8	0	0	0	0	513	515	1	536	39	5	
9	0	0	0	0	510	512	0	437	39	5	
10	0	0	0	0	514	513	0	363	39	5	
11	0	0	0	0	507	513	0	328	39	5	
12	0	0	0	0	504	513	1	295	39	5	
13	0	0	0	0	510	512	0	247	39	5	
14	0	0	0	0	505	511	0	195	39	5	
15	0	0	0	0	520	512	0	159	39	5	
0	0	0	0	0	512	513	1	141	39	5	
1	0	0	0	0	508	511	0	144	39	5	
2	0	0	0	0	513	513	0	169	39	5	
3	0	0	0	0	511	514	0	202	39	5	
4	0	0	0	0	514	514	1	245	39	5	
5	0	0	0	0	508	512	0	306	39	5	
6	0	0	0	0	509	513	0	362	39	5	
7	0	0	0	0	506	512	0	368	39	5	
8	0	0	0	0	507	512	1	330	39	5	
9	0	0	0	0	511	511	0	271	39	5	
10	0	0	0	0	512	512	0	201	39	5	
11	0	0	0	0	510	511	0	140	39	5	
12	0	0	0	0	511	511	1	108	39	5	
13	0	0	0	0	513	511	0	95	39	5	
14	0	0	0	0	504	510	0	110	39	5	
15	0	0	0	0	513	512	0	159	39	5	
0	0	0	0	0	517	512	0	227	39	5	
1	0	0	0	0	510	512	0	292	39	5	
2	0	0	0	0	510	511	0	323	39	5	
3	0	0	0	0	507	511	0	316	39	5	
4	0	0	0	0	509	512	1	300	39	5	
5	0	0	0	0	510	512	0	310	39	5	
6	0	0	0	0	512	514	0	310	39	5	
7	0	0	0	0	507	514	0	292	39	5	
8	0	0	0	0	512	514	1	267	39	5	
9	0	0	0	0	513	511	0	279	39	5	
10	0	0	0	0	507	512	0	299	39	5	
11	0	0	0	0	510	513	0	275	39	5	
12	0	0	0	0	507	512	1	208	39	5	
13	0	0	0	0	512	511	0	144	39	5	
14	0	0	0	0	511	512	0	136	39	5	
15	0	0	0	0	508	511	0	174	39	5	
0	0	0	0	0	512	510	1	207	39	5	
1	0	0	0	0	514	511	0	210	39	5	
2	0	0	0	0	508	509	0	184	39	5	
3	0	0	0	0	508	510	0	137	39	5	
4	0	0	0	0	508	511	1	84	39	5	
5	0	0	0	0	510	509	0	45	39	5	
6	0	0	0	0	512	510	0	30	39	5	
7	0	0	0	0	510	511	0	34	39	5	
8	0	0	0	0	516	513	0	34	39	5	
9	0	0	0	0	510	512	0	49	39	5	
10	0	0	0	0	508	513	0	57	39	5	
11	0	0	0	0	507	513	0	49	39	5	
12	0	0	0	0	513	510	0	44	39	5	
13	0	0	0	0	507	511	0	37	39	5	
14	0	0	0	0	512	511	0	31	39	5	
15	0	0	0	0	518	511	0	31	39	5	
0	0	0	0	0	513	510	1	19	39	5	
1	0	0	0	0	514	508	0	20	39	5	
2	0	0	0	0	512	509	0	61	39	5	
3	0	0	0	0	510	510	0	127	38	5	
4	0	0	0	0	507	510	0	219	38	5	
5	0	0	0	0	510	510	0	299	38	5	
6	0	0	0	0	511	511	0	341	38	5	
7	0	0	0	0	510	511	0	350	38	5	
8	0	0	0	0	503	512	0	331	38	5	
9	0	0	0	0	507	512	0	307	38	4	
10	0	0	0	0	508	512	0	296	38	5	
11	0	0	0	0	510	512	0	279	38	5	
12	0	0	0	0	520	508	0	250	38	5	
13	0	0	0	0	515	509	0	255	38	5	
14	0	0	0	0	511	511	0	273	38	5	
15	0	0	0	0	510	511	0	284	38	5	
0	0	0	0	0	510	509	0	264	38	4	
1	0	0	0	0	503	511	0	238	39	4	
2	0	0	0	0	510	512	0	205	39	4	
3	0	0	0	0	518	513	0	156	39	5	
4	0	0	0	0	512	511	0	105	39	5	
5	0	0	0	0	502	511	0	67	39	5	
6	0	0	0	0	511	513	0	59	39	5	
7	0	0	0	0	511	513	0	62	39	4	
8	0	0	0	0	511	510	0	42	39	4	
9	0	0	0	0	508	513	0	8	39	4	
10	0	0	0	0	509	512	0	0	39	4	
11	0	0	0	0	503	512	0	0	39	5	
12	0	0	0	0	508	514	1	0	39	5	
13	0	0	0	0	511	512	0	0	39	5	
14	0	0	0	0	510	513	0	27	39	5	
15	0	0	0	0	512	512	0	18	39	5	
0	0	0	0	0	508	511	1	22	39	5	
1	0	0	0	0	501	511	0	33	39	4	
2	0	0	0	0	510	513	0	61	39	4	
3	0	0	0	0	511	514	0	127	39	4	
4	0	0	0	0	513	513	0	204	39	5	
5	0	0	0	0	509	514	0	269	39	5	
6	0	0	0	0	515	514	0	309	39	5	
7	0	0	0	0	506	516	0	320	39	4	
8	0	0	0	0	510	516	1	323	39	5	
9	0	0	0	0	510	513	0	316	38	4	
10	0	0	0	0	510	514	0	316	39	4	
11	0	0	0	0	511	515	0	323	38	4	
12	0	0	0	0	504	513	0	331	38	5	
13	0	0	0	0	508	514	0	331	39	5	
14	0	0	0	0	512	515	0	312	39	5	
15	0	0	0	0	514	515	0	281	39	5	
0	0	0	0	0	515	513	0	248	39	4	
1	0	0	0	0	513	513	0	214	39	4	
2	0	0	0	0	515	514	0	167	39	4	
3	0	0	0	0	509	515	0	127	39	4	
4	0	0	0	0	511	512	0	112	39	4	
5	0	0	0	0	508	512	0	133	39	5	
6	0	0	0	0	511	511	0	199	39	5	
7	0	0	0	0	502	511	0	254	39	5	
8	0	0	0	0	511	511	1	260	39	5	
9	0	0	0	0	511	511	0	220	39	4	
10	0	0	0	0	504	511	0	170	39	4	
11	0	0	0	0	510	512	0	135	39	4	
12	0	0	0	0	511	513	1	120	38	5	
13	0	0	0	0	512	512	0	96	39	4	
14	0	0	0	0	511	510	0	55	39	5	
15	0	0	0	0	511	511	0	12	39	5	
0	0	0	0	0	517	511	1	0	39	5	
1	0	0	0	0	506	511	0	0	39	4	
2	0	0	0	0	508	511	0	0	39	4	
3	0	0	0	0	508	511	0	0	38	4	
4	0	0	0	0	504	512	1	52	38	4	
5	0	0	0	0	511	512	0	70	39	5	
6	0	0	0	0	514	513	0	33	38	5	
7	0	0	0	0	511	513	0	0	38	5	
8	0	0	0	0	508	512	1	0	38	5	
9	0	0	0	0	507	507	0	0	38	4	
10	0	0	0	0	509	507	0	0	39	4	
11	0	0	0	0	512	508	0	0	38	4	
12	0	0	0	0	508	508	0	0	38	4	
13	0	0	0	0	510	508	0	0	38	4	
14	0	0	0	0	515	507	0	0	38	5	
15	0	0	0	0	514	509	0	0	38	5	
0	0	0	0	0	510	511	1	0	38	5	
1	0	0	0	0	512	512	0	0	38	4	
2	0	0	0	0	510	512	0	0	39	4	
3	0	0	0	0	504	511	0	0	38	4	
4	0	0	0	0	518	514	1	0	38	4	
5	0	0	0	0	507	512	0	0	39	4	
6	0	0	0	0	504	513	0	0	39	5	
7	0	0	0	0	509	512	0	0	38	5	
8	0	0	0	0	514	511	0	0	38	4	
9	0	0	0	0	513	512	0	0	38	5	
10	0	0	0	0	508	512	0	0	38	4	
11	0	0	0	0	509	513	0	0	38	4	
12	0	0	0	0	504	513	1	0	38	4	
13	0	0	0	0	512	511	0	0	38	4	
14	0	0	0	0	507	511	0	0	38	5	
15	0	0	0	0	508	512	0	0	38	4	
0	0	0	0	0	512	513	1	0	38	5	
1	0	0	0	0	509	513	0	0	38	5	
2	0	0	0	0	511	512	0	0	38	4	
3	0	0	0	0	511	513	0	0	38	4	
4	0	0	0	0	506	511	0	0	38	4	
5	0	0	0	0	510	512	0	0	38	4	
6	0	0	0	0	507	510	0	0	38	4	
7	0	0	0	0	511	511	0	0	38	5	
8	0	0	0	0	512	513	1	0	38	5	
9	0	0	0	0	509	511	0	0	38	5	
10	0	0	0	0	507	514	0	0	38	4	
11	0	0	0	0	511	512	0	0	38	4	
12	0	0	0	0	511	513	1	0	38	4	
13	0	0	0	0	511	510	0	0	38	4	
14	0	0	0	0	515	513	0	0	38	4	
15	0	0	0	0	507	513	0	0	38	5	
0	0	0	0	0	512	513	0	0	38	5	
1	0	0	0	0	506	513	0	0	39	5	
2	0	0	0	0	514	512	0	0	38	5	
3	0	0	0	0	508	514	0	0	38	4	
4	0	0	0	0	507	516	1	0	38	4	
5	0	0	0	0	503	516	0	0	38	4	
6	0	0	0	0	518	515	0	0	38	4	
7	0	0	0	0	510	515	0	0	39	4	
8	0	0	0	0	502	514	0	0	38	5	
9	0	0	0	0	506	512	0	0	39	5	
10	0	0	0	0	510	513	0	0	39	5	
11	0	0	0	0	511	514	0	0	38	4	
12	0	0	0	0	514	512	0	0	38	4	
13	0	0	0	0	510	513	0	0	39	4	
14	0	0	0	0	511	513	0	0	38	4	
15	0	0	0	0	517	515	0	0	38	4	
0	0	0	0	0	507	515	1	0	38	5	
1	0	0	0	0	510	513	0	0	39	5	
2	0	0	0	0	512	512	0	0	39	4	
3	0	0	0	0	514	514	0	0	39	4	
4	0	0	0	0	515	512	0	0	39	4	
5	0	0	0	0	519	513	0	0	39	4	
6	0	0	0	0	517	514	0	0	39	4	
7	0	0	0	0	502	512	0	0	39	4	
8	0	0	0	0	507	512	0	0	38	5	
9	0	0	0	0	507	512	0	0	39	5	
10	0	0	0	0	508	512	0	0	38	5	
11	0	0	0	0	511	513	0	0	38	5	
12	0	0	0	0	500	514	1	0	39	4	
13	0	0	0	0	510	514	0	0	38	4	
14	0	0	0	0	504	513	0	0	38	4	
15	0	0	0	0	514	514	0	0	39	4	
0	0	0	0	0	507	513	0	0	38	5	
1	0	0	0	0	512	512	0	0	39	5	
2	0	0	0	0	507	513	0	0	38	5	
3	0	0	0	0	508	513	0	0	38	5	
4	0	0	0	0	507	512	0	0	38	4	
5	0	0	0	0	510	512	0	0	38	4	
6	0	0	0	0	512	512	0	0	38	4	
7	0	0	0	0	515	513	0	0	38	4	
8	0	0	0	0	508	513	1	0	38	5	
9	0	0	0	0	511	512	0	0	38	5	
10	0	0	0	0	508	513	0	0	38	5	
11	0	0	0	0	512	513	0	0	38	4	
12	0	0	0	0	515	513	0	0	38	4	
13	0	0	0	0	508	512	0	0	39	4	
14	0	0	0	0	513	512	0	0	39	4	
15	0	0	0	0	510	512	0	0	39	4	
0	0	0	0	0	505	513	1	0	39	4	
1	0	0	0	0	510	511	0	0	39	5	
2	0	0	0	0	505	511	0	0	39	5	
3	0	0	0	0	513	512	0	0	39	5	
4	0	0	0	0	510	513	1	0	39	5	
5	0	0	0	0	506	513	0	0	39	4	
6	0	0	0	0	509	512	0	0	39	4	
7	0	0	0	0	505	514	0	0	39	4	
8	0	0	0	0	507	513	0	0	38	4	
9	0	0	0	0	510	511	0	0	38	4	
10	0	0	0	0	510	512	0	0	39	5	
11	0	0	0	0	512	512	0	0	38	5	
12	0	0	0	0	502	510	0	0	38	5	
13	0	0	0	0	511	510	0	0	38	4	
14	0	0	0	0	509	511	0	0	39	4	
15	0	0	0	0	508	511	0	0	39	4	
0	0	0	0	0	513	514	0	0	39	4	
1	0	0	0	0	515	515	0	0	39	4	
2	0	0	0	0	511	516	0	0	38	5	
3	0	0	0	0	510	517	0	0	38	5	
4	0	0	0	0	511	514	1	0	38	5	
5	0	0	0	0	509	513	0	0	38	4	
6	0	0	0	0	512	513	0	0	38	4	
7	0	0	0	0	514	515	0	0	38	4	
8	0	0	0	0	513	516	1	0	38	4	
9	0	0	0	0	509	514	0	0	38	4	
10	0	0	0	0	510	513	0	0	38	5	
11	0	0	0	0	507	512	0	0	38	5	
12	0	0	0	0	502	512	1	0	38	5	
13	0	0	0	0	511	511	0	0	38	4	
14	0	0	0	0	517	512	0	0	38	4	
15	0	0	0	0	513	511	0	0	38	4	
0	0	0	0	0	508	511	0	0	38	4	
1	0	0	0	0	513	512	0	0	38	4	
2	0	0	0	0	505	515	0	0	38	5	
3	0	0	0	0	514	513	0	0	38	5	
4	0	0	0	0	506	513	1	0	38	5	
5	0	0	0	0	509	510	0	0	39	5	
6	0	0	0	0	509	511	0	0	39	4	
7	0	0	0	0	515	511	0	0	38	4	
8	0	0	0	0	519	512	1	0	38	4	
9	0	0	0	0	515	510	0	0	39	4	
10	0	0	0	0	505	510	0	0	39	4	
11	0	0	0	0	507	512	0	0	39	5	
12	0	0	0	0	504	511	0	0	39	5	
13	0	0	0	0	509	508	0	0	39	4	
14	0	0	0	0	508	509	0	0	39	5	
15	0	0	0	0	513	512	0	0	39	4	
0	0	0	0	0	515	511	0	0	39	4	
1	0	0	0	0	515	512	0	0	39	4	
2	0	0	0	0	515	512	0	0	39	4	
3	0	0	0	0	511	511	0	0	39	5	
4	0	0	0	0	508	511	0	0	39	5	
5	0	0	0	0	511	512	0	0	39	5	
6	0	0	0	0	509	512	0	0	39	5	
7	0	0	0	0	507	511	0	0	39	4	
8	0	0	0	0	507	512	1	0	39	4	
9	0	0	0	0	509	512	0	0	39	4	
10	0	0	0	0	511	514	0	0	39	4	
11	0	0	0	0	511	514	0	0	39	4	
12	0	0	0	0	509	512	0	0	39	5	
13	0	0	0	0	500	512	0	0	39	5	
14	0	0	0	0	510	513	0	59	39	5	
15	0	0	0	0	504	514	0	68	39	4	
0	0	0	0	0	514	515	1	56	39	4	
1	0	0	0	0	511	515	0	57	39	4	
2	0	0	0	0	507	516	0	70	39	4	
3	0	0	0	0	509	518	0	101	39	5	
4	0	0	0	0	511	517	1	128	39	5	
5	0	0	0	0	519	516	0	160	39	5	
6	0	0	0	0	513	517	0	175	39	5	
7	0	0	0	0	508	516	0	177	39	4	
8	0	0	0	0	515	517	1	176	39	4	
9	0	0	0	0	511	515	0	196	39	4	
10	0	0	0	0	512	515	0	213	39	4	
11	0	0	0	0	514	514	0	209	39	4	
12	0	0	0	0	503	511	0	203	39	5	
13	0	0	0	0	513	511	0	192	39	5	
14	0	0	0	0	515	512	0	181	39	5	
15	0	0	0	0	509	513	0	166	39	4	
0	0	0	0	0	505	513	0	186	38	4	
1	0	0	0	0	508	511	0	210	39	4	
2	0	0	0	0	509	512	0	232	39	4	
3	0	0	0	0	509	513	0	253	39	4	
4	0	0	0	0	509	512	0	274	39	5	
5	0	0	0	0	512	511	0	281	39	5	
6	0	0	0	0	507	512	0	284	39	5	
7	0	0	0	0	512	512	0	275	39	5	
8	0	0	0	0	509	513	1	244	39	5	
9	0	0	0	0	515	511	0	206	39	4	
10	0	0	0	0	511	511	0	210	39	4	
11	0	0	0	0	509	512	0	263	39	4	
12	0	0	0	0	511	514	1	330	39	5	
13	0	0	0	0	510	513	0	392	39	5	
14	0	0	0	0	507	513	0	451	39	5	
15	0	0	0	0	509	514	0	522	39	5	
0	0	0	0	0	508	514	1	596	39	5	
1	0	0	0	0	508	513	0	648	39	4	
2	0	0	0	0	511	513	0	672	39	4	
3	0	0	0	0	508	515	0	681	39	4	
4	0	0	0	0	507	513	0	679	39	4	
5	0	0	0	0	517	513	0	688	39	5	
6	0	0	0	0	510	512	0	719	39	5	
7	0	0	0	0	511	514	0	752	39	5	
8	0	0	0	0	514	512	0	791	39	5	
9	0	0	0	0	512	513	0	850	39	4	
10	0	0	0	0	508	515	0	945	39	4	
11	0	0	0	0	508	516	0	1017	39	4	
12	0	0	0	0	512	516	1	1019	39	5	
13	0	0	0	0	510	514	0	1018	39	5	
14	0	0	0	0	507	513	0	1018	39	5	
15	0	0	0	0	504	515	0	1018	39	5	
0	0	0	0	0	515	514	0	1018	39	5	
1	0	0	0	0	508	514	0	1018	39	4	
2	0	0	0	0	515	514	0	1018	39	4	
3	0	0	0	0	507	512	0	1018	39	4	
4	0	0	0	0	505	512	0	1018	39	4	
5	0	0	0	0	512	511	0	1018	39	4	
6	0	0	0	0	513	510	0	1018	39	5	
7	0	0	0	0	508	510	0	1018	39	5	
8	0	0	0	0	511	511	1	1019	39	5	
9	0	0	0	0	508	511	0	1018	39	4	
10	0	0	0	0	516	513	0	1018	39	4	
11	0	0	0	0	507	514	0	1018	39	4	
12	0	0	0	0	508	514	1	1019	39	4	
13	0	0	0	0	513	511	0	1018	39	4	
14	0	0	0	0	515	512	0	1018	39	5	
15	0	0	0	0	510	512	0	1018	39	5	
0	0	0	0	0	505	511	1	1018	39	5	
1	0	0	0	0	505	510	0	1018	39	5	
2	0	0	0	0	507	510	0	1018	39	4	
3	0	0	0	0	512	511	0	1018	39	4	
4	0	0	0	0	518	512	1	1019	39	4	
5	0	0	0	0	511	511	0	1018	39	4	
6	0	0	0	0	511	513	0	1018	39	5	
7	0	0	0	0	510	513	0	1018	39	5	
8	0	0	0	0	506	513	0	1018	39	5	
9	0	0	0	0	507	512	0	1018	39	5	
10	0	0	0	0	517	513	0	1018	39	5	
11	0	0	0	0	515	513	0	1018	39	4	
12	0	0	0	0	511	514	0	1018	39	4	
13	0	0	0	0	517	513	0	1018	39	4	
14	0	0	0	0	510	511	0	1018	38	5	
15	0	0	0	0	516	513	0	1018	39	5	
0	0	0	0	0	511	513	1	1019	39	5	
1	0	0	0	0	510	511	0	1018	39	5	
2	0	0	0	0	508	510	0	1018	39	4	
3	0	0	0	0	505	511	0	1018	38	4	
4	0	0	0	0	508	511	1	1018	38	4	
5	0	0	0	0	514	512	0	1018	38	4	
6	0	0	0	0	507	513	0	1018	38	4	
7	0	0	0	0	509	514	0	1018	39	5	
8	0	0	0	0	511	512	1	1018	38	5	
9	0	0	0	0	504	512	0	1018	39	5	
10	0	0	0	0	511	511	0	1018	39	5	
11	0	0	0	0	516	512	0	1018	39	4	
12	0	0	0	0	512	511	1	1019	39	4	
13	0	0	0	0	508	510	0	1018	39	4	
14	0	0	0	0	511	511	0	1018	39	4	
15	0	0	0	0	513	511	0	1018	38	5	
0	0	0	0	0	511	510	0	1019	39	5	
1	0	0	0	0	510	511	0	1018	39	5	
2	0	0	0	0	510	510	0	1018	39	5	
3	0	0	0	0	512	511	0	1018	39	4	
4	0	0	0	0	511	512	1	1019	39	5	
5	0	0	0	0	511	512	0	1018	39	4	
6	0	0	0	0	510	511	0	1018	39	4	
7	0	0	0	0	511	513	0	1018	39	5	
8	0	0	0	0	503	512	0	1019	38	5	
9	0	0	0	0	508	512	0	1018	38	5	
10	0	0	0	0	508	512	0	1018	38	5	
11	0	0	0	0	513	511	0	1018	38	4	
12	0	0	0	0	508	510	1	1019	38	5	
13	0	0	0	0	513	508	0	1018	38	4	
14	0	0	0	0	520	511	0	1018	38	4	
15	0	0	0	0	515	511	0	1018	38	4	
0	0	0	0	0	507	511	1	1019	38	5	
1	0	0	0	0	507	510	0	1018	39	5	
2	0	0	0	0	506	511	0	1018	39	5	
3	0	0	0	0	514	514	0	1018	39	5	
4	0	0	0	0	516	512	0	1019	39	4	
5	0	0	0	0	502	510	0	1018	39	4	
6	0	0	0	0	503	509	0	1018	39	4	
7	0	0	0	0	511	510	0	1018	39	4	
8	0	0	0	0	510	510	1	1019	39	5	
9	0	0	0	0	510	508	0	1018	39	5	
10	0	0	0	0	504	509	0	1018	39	5	
11	0	0	0	0	515	511	0	1018	39	5	
12	0	0	0	0	512	512	1	1019	39	5	
13	0	0	0	0	508	510	0	1018	39	4	
14	0	0	0	0	508	512	0	1018	39	4	
15	0	0	0	0	508	511	0	1018	39	4	
0	0	0	0	0	512	514	1	1019	39	5	
1	0	0	0	0	512	512	0	1018	39	5	
2	0	0	0	0	508	513	0	1018	39	5	
3	0	0	0	0	513	513	0	1018	39	5	
4	0	0	0	0	507	513	1	1019	39	5	
5	0	0	0	0	505	513	0	1018	39	4	
6	0	0	0	0	512	513	0	1018	39	4	
7	0	0	0	0	506	515	0	1018	38	4	
8	0	0	0	0	512	512	0	1019	39	5	
9	0	0	0	0	508	510	0	1018	39	5	
10	0	0	0	0	512	511	0	1018	39	5	
11	0	0	0	0	509	511	0	1018	39	5	
12	0	0	0	0	517	511	1	1019	39	5	
13	0	0	0	0	511	511	0	1018	39	4	
14	0	0	0	0	510	510	0	1018	39	4	
15	0	0	0	0	510	509	0	1018	39	4	
0	0	0	0	0	511	509	1	1018	39	4	
1	0	0	0	0	508	509	0	1018	39	5	
2	0	0	0	0	511	507	0	1018	39	5	
3	0	0	0	0	511	507	0	1018	39	5	
4	0	0	0	0	503	509	1	1019	39	5	
5	0	0	0	0	510	512	0	1018	39	4	
6	0	0	0	0	516	514	0	1018	39	4	
7	0	0	0	0	514	512	0	1018	39	4	
8	0	0	0	0	506	511	1	1019	39	5	
9	0	0	0	0	500	510	0	1018	39	5	
10	0	0	0	0	513	511	0	1018	39	5	
11	0	0	0	0	515	510	0	1018	39	5	
12	0	0	0	0	512	510	1	1019	39	5	
13	0	0	0	0	510	510	0	1018	39	5	
14	0	0	0	0	510	512	0	1018	39	4	
15	0	0	0	0	511	511	0	1018	39	4	
0	0	0	0	0	513	512	1	1019	39	4	
1	0	0	0	0	507	511	0	1018	39	4	
2	0	0	0	0	518	512	0	1018	39	5	
3	0	0	0	0	515	512	0	1018	39	5	
4	0	0	0	0	513	511	1	1019	39	5	
5	0	0	0	0	508	513	0	1018	39	5	
6	0	0	0	0	506	512	0	1018	39	4	
7	0	0	0	0	510	512	0	1018	39	4	
8	0	0	0	0	505	511	1	1019	39	5	
9	0	0	0	0	508	510	0	1018	39	4	
10	0	0	0	0	515	508	0	1018	39	5	
11	0	0	0	0	505	509	0	1018	39	5	
12	0	0	0	0	505	510	1	1019	39	5	
13	0	0	0	0	513	510	0	1018	39	5	
14	0	0	0	0	512	509	0	1018	39	5	
15	0	0	0	0	508	509	0	1018	39	4	
0	0	0	0	0	517	509	0	1018	39	4	
1	0	0	0	0	507	511	0	1018	39	4	
2	0	0	0	0	508	513	0	1018	39	5	
3	0	0	0	0	512	512	0	1018	39	5	
4	0	0	0	0	505	512	1	1019	39	5	
5	0	0	0	0	511	512	0	1018	39	5	
6	0	0	0	0	508	511	0	1018	39	5	
7	0	0	0	0	516	511	0	1018	39	4	
8	0	0	0	0	499	510	1	1019	39	4	
9	0	0	0	0	508	508	0	1018	39	5	
10	0	0	0	0	513	508	0	1018	39	4	
11	0	0	0	0	513	508	0	1018	39	5	
12	0	0	0	0	519	508	1	1019	39	5	
13	0	0	0	0	508	508	0	1018	39	5	
14	0	0	0	0	504	511	0	1018	39	5	
15	0	0	0	0	512	512	0	1018	39	4	
0	0	0	0	0	505	512	1	1019	39	4	
1	0	0	0	0	516	512	0	1018	39	4	
2	0	0	0	0	510	513	0	1018	39	4	
3	0	0	0	0	504	513	0	1018	39	5	
4	0	0	0	0	506	512	1	1019	39	5	
5	0	0	0	0	505	511	0	1018	39	5	
6	0	0	0	0	511	512	0	1018	39	5	
7	0	0	0	0	509	512	0	1018	39	4	
8	0	0	0	0	509	513	1	1019	39	4	
9	0	0	0	0	511	513	0	1018	39	4	
10	0	0	0	0	509	512	0	1018	39	4	
11	0	0	0	0	508	514	0	1017	39	5	
12	0	0	0	0	515	515	1	1019	39	5	
13	0	0	0	0	511	513	0	1018	39	5	
14	0	0	0	0	508	513	0	1018	39	5	
15	0	0	0	0	511	514	0	1018	39	4	
0	0	0	0	0	513	513	1	1017	39	4	
1	0	0	0	0	511	513	0	1018	39	4	
2	0	0	0	0	512	511	0	1018	39	4	
3	0	0	0	0	516	512	0	988	39	4	
4	0	0	0	0	513	511	1	991	39	5	
5	0	0	0	0	515	510	0	1001	39	5	
6	0	0	0	0	505	512	0	1011	39	5	
7	0	0	0	0	504	510	0	1005	39	5	
8	0	0	0	0	504	508	0	990	39	4	
9	0	0	0	0	506	508	0	961	39	4	
10	0	0	0	0	505	508	0	927	39	4	
11	0	0	0	0	506	510	0	892	39	4	
12	0	0	0	0	512	510	0	844	39	5	
13	0	0	0	0	507	508	0	808	39	5	
14	0	0	0	0	519	509	0	792	39	5	
15	0	0	0	0	511	510	0	814	39	5	
0	0	0	0	0	513	510	1	865	39	4	
1	0	0	0	0	504	509	0	887	39	4	
2	0	0	0	0	509	510	0	904	39	4	
3	0	0	0	0	509	512	0	927	39	4	
4	0	0	0	0	510	511	1	937	39	5	
5	0	0	0	0	515	512	0	940	39	5	
6	0	0	0	0	512	513	0	935	39	5	
7	0	0	0	0	515	512	0	923	39	4	
8	0	0	0	0	507	511	1	900	39	5	
9	0	0	0	0	508	512	0	880	39	4	
10	0	0	0	0	508	510	0	856	39	4	
11	0	0	0	0	504	511	0	820	39	4	
12	0	0	0	0	513	512	1	770	39	5	
13	0	0	0	0	511	512	0	709	39	5	
14	0	0	0	0	515	510	0	659	39	5	
15	0	0	0	0	509	510	0	664	39	5	
0	0	0	0	0	510	508	1	699	39	5	
1	0	0	0	0	511	507	0	720	39	4	
2	0	0	0	0	510	510	0	719	39	4	
3	0	0	0	0	505	513	0	687	39	4	
4	0	0	0	0	516	512	1	636	39	4	
5	0	0	0	0	514	512	0	600	39	5	
6	0	0	0	0	503	513	0	600	39	5	
7	0	0	0	0	512	514	0	636	39	5	
8	0	0	0	0	512	516	1	676	39	5	
9	0	0	0	0	514	512	0	704	39	4	
10	0	0	0	0	504	512	0	691	39	4	
11	0	0	0	0	513	512	0	661	39	4	
12	0	0	0	0	510	510	1	636	39	4	
13	0	0	0	0	507	511	0	643	39	5	
14	0	0	0	0	514	512	0	675	39	5	
15	0	0	0	0	511	513	0	712	39	5	
0	0	0	0	0	510	514	1	739	39	5	
1	0	0	0	0	509	512	0	756	39	5	
2	0	0	0	0	515	514	0	766	39	5	
3	0	0	0	0	510	513	0	749	39	4	
4	0	0	0	0	507	514	1	730	39	5	
5	0	0	0	0	504	512	0	714	39	5	
6	0	0	0	0	515	512	0	679	39	5	
7	0	0	0	0	509	513	0	630	39	5	
8	0	0	0	0	511	514	1	593	39	5	
9	0	0	0	0	511	515	0	571	38	5	
10	0	0	0	0	511	514	0	566	39	4	
11	0	0	0	0	507	515	0	578	38	4	
12	0	0	0	0	515	513	0	600	38	4	
13	0	0	0	0	517	512	0	641	39	4	
14	0	0	0	0	508	513	0	683	39	5	
15	0	0	0	0	511	513	0	696	39	5	
0	0	0	0	0	514	513	1	700	38	5	
1	0	0	0	0	510	512	0	668	39	5	
2	0	0	0	0	507	513	0	602	39	5	
3	0	0	0	0	509	513	0	537	39	4	
4	0	0	0	0	508	515	1	500	38	4	
5	0	0	0	0	505	515	0	506	39	4	
6	0	0	0	0	514	516	0	544	39	5	
7	0	0	0	0	509	517	0	589	38	5	
8	0	0	0	0	508	518	1	606	39	5	
9	0	0	0	0	510	514	0	605	39	5	
10	0	0	0	0	509	513	0	569	39	5	
11	0	0	0	0	510	512	0	525	39	5	
12	0	0	0	0	512	512	1	505	39	4	
13	0	0	0	0	514	513	0	498	39	5	
14	0	0	0	0	510	513	0	486	39	5	
15	0	0	0	0	512	513	0	469	39	5	
0	0	0	0	0	508	513	0	466	39	5	
1	0	0	0	0	506	512	0	461	39	5	
2	0	0	0	0	510	512	0	443	39	5	
3	0	0	0	0	518	514	0	425	39	4	
4	0	0	0	0	510	515	1	427	39	4	
5	0	0	0	0	505	513	0	444	39	4	
6	0	0	0	0	505	514	0	469	39	5	
7	0	0	0	0	503	515	0	508	39	5	
8	0	0	0	0	511	516	1	540	39	5	
9	0	0	0	0	515	515	0	552	39	5	
10	0	0	0	0	513	512	0	538	39	5	
11	0	0	0	0	503	514	0	498	39	5	
12	0	0	0	0	509	513	0	455	39	4	
13	0	0	0	0	500	513	0	429	39	4	
14	0	0	0	0	515	513	0	416	39	4	
15	0	0	0	0	511	514	0	404	39	5	
0	0	0	0	0	512	513	1	390	39	5	
1	0	0	0	0	512	513	0	385	39	5	
2	0	0	0	0	510	511	0	395	39	5	
3	0	0	0	0	511	513	0	419	39	5	
4	0	0	0	0	514	512	0	438	39	4	
5	0	0	0	0	514	512	0	464	39	4	
6	0	0	0	0	503	513	0	500	39	4	
7	0	0	0	0	510	513	0	526	39	4	
8	0	0	0	0	507	510	0	531	39	5	
9	0	0	0	0	510	511	0	502	39	5	
10	0	0	0	0	511	511	0	438	39	5	
11	0	0	0	0	517	510	0	390	39	5	
12	0	0	0	0	505	508	0	380	39	4	
13	0	0	0	0	511	509	0	363	39	4	
14	0	0	0	0	514	511	0	342	39	4	
15	0	0	0	0	515	511	0	324	39	4	
0	0	0	0	0	511	512	1	310	39	5	
1	0	0	0	0	508	511	0	314	39	5	
2	0	0	0	0	509	510	0	336	39	5	
3	0	0	0	0	512	510	0	357	39	5	
4	0	0	0	0	503	509	1	353	39	4	
5	0	0	0	0	505	508	0	346	39	4	
6	0	0	0	0	511	510	0	337	39	4	
7	0	0	0	0	513	511	0	338	39	4	
8	0	0	0	0	512	511	1	354	39	5	
9	0	0	0	0	507	508	0	371	39	5	
10	0	0	0	0	509	508	0	399	39	5	
11	0	0	0	0	515	507	0	417	39	5	
12	0	0	0	0	513	509	1	402	39	5	
13	0	0	0	0	512	510	0	380	39	4	
14	0	0	0	0	512	509	0	365	39	4	
15	0	0	0	0	510	510	0	340	39	4	
0	0	0	0	0	510	511	1	302	39	5	
1	0	0	0	0	510	510	0	284	39	5	
2	0	0	0	0	508	511	0	308	39	5	
3	0	0	0	0	510	513	0	357	39	5	
4	0	0	0	0	510	515	1	388	39	5	
5	0	0	0	0	510	513	0	400	39	4	
6	0	0	0	0	508	515	0	405	39	4	
7	0	0	0	0	505	514	0	388	39	4	
8	0	0	0	0	513	513	0	360	39	4	
9	0	0	0	0	509	513	0	359	39	5	
10	0	0	0	0	514	513	0	346	39	5	
11	0	0	0	0	512	512	0	332	39	5	
12	0	0	0	0	511	512	1	351	39	5	
13	0	0	0	0	513	512	0	392	39	5	
14	0	0	0	0	504	512	0	417	39	4	
15	0	0	0	0	510	512	0	416	39	4	
0	0	0	0	0	510	512	1	377	39	5	
1	0	0	0	0	505	511	0	332	39	5	
2	0	0	0	0	512	512	0	287	39	5	
3	0	0	0	0	510	513	0	255	39	5	
4	0	0	0	0	514	512	1	231	39	5	
5	0	0	0	0	508	512	0	201	39	5	
6	0	0	0	0	510	512	0	168	39	4	
7	0	0	0	0	506	511	0	134	39	4	
8	0	0	0	0	509	510	0	109	39	4	
9	0	0	0	0	511	510	0	130	39	4	
10	0	0	0	0	514	512	0	179	39	5	
11	0	0	0	0	511	513	0	219	39	5	
12	0	0	0	0	508	514	1	229	39	5	
13	0	0	0	0	506	513	0	208	39	5	
14	0	0	0	0	508	515	0	173	39	5	
15	0	0	0	0	506	514	0	156	39	4	
0	0	0	0	0	510	515	0	151	38	4	
1	0	0	0	0	513	515	0	159	39	4	
2	0	0	0	0	515	515	0	187	39	5	
3	0	0	0	0	510	516	0	253	39	5	
4	0	0	0	0	507	515	0	346	39	5	
5	0	0	0	0	509	513	0	425	39	5	
6	0	0	0	0	508	513	0	462	39	5	
7	0	0	0	0	511	515	0	460	39	4	
8	0	0	0	0	506	512	0	472	39	4	
9	0	0	0	0	512	511	0	479	39	4	
10	0	0	0	0	508	513	0	460	39	5	
11	0	0	0	0	513	515	0	407	39	5	
12	0	0	0	0	511	513	0	326	39	5	
13	0	0	0	0	514	513	0	271	39	5	
14	0	0	0	0	503	513	0	240	39	5	
15	0	0	0	0	511	514	0	205	39	4	
0	0	0	0	0	508	514	0	186	39	4	
1	0	0	0	0	511	514	0	205	39	5	
2	0	0	0	0	520	514	0	223	39	5	
3	0	0	0	0	513	514	0	275	39	5	
4	0	0	0	0	510	512	1	323	39	5	
5	0	0	0	0	504	510	0	340	39	5	
6	0	0	0	0	516	511	0	353	39	5	
7	0	0	0	0	514	512	0	396	39	4	
8	0	0	0	0	508	514	1	427	39	4	
9	0	0	0	0	502	514	0	420	39	4	
10	0	0	0	0	512	513	0	351	39	5	
11	0	0	0	0	506	514	0	261	39	5	
12	0	0	0	0	504	512	0	228	39	5	
13	0	0	0	0	506	512	0	239	39	5	
14	0	0	0	0	509	513	0	243	39	5	
15	0	0	0	0	510	512	0	205	39	4	
0	0	0	0	0	515	512	1	152	39	5	
1	0	0	0	0	520	510	0	127	39	4	
2	0	0	0	0	517	510	0	158	39	4	
3	0	0	0	0	505	513	0	219	39	5	
4	0	0	0	0	508	512	0	242	39	5	
5	0	0	0	0	503	513	0	246	39	5	
6	0	0	0	0	515	513	0	266	39	5	
7	0	0	0	0	510	513	0	295	39	5	
8	0	0	0	0	508	514	0	299	39	5	
9	0	0	0	0	508	512	0	295	39	4	
10	0	0	0	0	510	513	0	288	39	4	
11	0	0	0	0	504	510	0	288	39	5	
12	0	0	0	0	512	511	1	274	39	5	
13	0	0	0	0	514	510	0	244	39	5	
14	0	0	0	0	511	511	0	208	39	5	
15	0	0	0	0	516	511	0	160	39	5	
0	0	0	0	0	517	510	0	117	39	4	
1	0	0	0	0	506	509	0	85	39	4	
2	0	0	0	0	513	510	0	70	39	4	
3	0	0	0	0	504	509	0	71	39	5	
4	0	0	0	0	502	510	1	91	39	5	
5	0	0	0	0	506	510	0	136	39	5	
6	0	0	0	0	517	510	0	189	39	5	
7	0	0	0	0	508	510	0	246	39	5	
8	0	0	0	0	512	512	0	357	38	4	
9	0	0	0	0	508	512	0	456	39	4	
10	0	0	0	0	506	511	0	470	39	4	
11	0	0	0	0	503	511	0	433	39	4	
12	0	0	0	0	511	510	0	375	38	5	
13	0	0	0	0	512	511	0	302	39	5	
14	0	0	0	0	509	513	0	240	39	5	
15	0	0	0	0	510	513	0	198	39	5	
0	0	0	0	0	512	512	1	152	39	5	
1	0	0	0	0	510	512	0	119	39	4	
2	0	0	0	0	509	511	0	91	39	4	
3	0	0	0	0	509	510	0	50	39	4	
4	0	0	0	0	511	511	1	10	39	5	
5	0	0	0	0	510	511	0	0	39	5	
6	0	0	0	0	506	513	0	0	39	5	
7	0	0	0	0	507	514	0	0	39	5	
8	0	0	0	0	507	511	0	0	39	5	
9	0	0	0	0	517	510	0	0	39	4	
10	0	0	0	0	510	511	0	61	39	4	
11	0	0	0	0	507	512	0	133	39	4	
12	0	0	0	0	508	514	1	171	39	5	
13	0	0	0	0	515	514	0	192	39	5	
14	0	0	0	0	514	513	0	182	39	5	
15	0	0	0	0	509	514	0	163	39	5	
0	0	0	0	0	511	512	0	154	39	5	
1	0	0	0	0	513	511	0	158	39	4	
2	0	0	0	0	509	512	0	148	39	4	
3	0	0	0	0	513	512	0	130	39	4	
4	0	0	0	0	505	512	1	134	39	5	
5	0	0	0	0	502	510	0	165	39	5	
6	0	0	0	0	507	511	0	198	39	5	
7	0	0	0	0	512	512	0	223	39	5	
8	0	0	0	0	513	510	0	243	39	5	
9	0	0	0	0	510	511	0	255	39	5	
10	0	0	0	0	515	513	0	275	39	5	
11	0	0	0	0	519	512	0	299	39	4	
12	0	0	0	0	507	514	1	300	39	5	
13	0	0	0	0	508	511	0	311	39	4	
14	0	0	0	0	507	511	0	296	39	5	
15	0	0	0	0	513	513	0	249	39	5	
0	0	0	0	0	514	512	1	204	39	5	
1	0	0	0	0	511	511	0	197	39	5	
2	0	0	0	0	508	512	0	204	39	4	
3	0	0	0	0	505	513	0	203	39	4	
4	0	0	0	0	511	512	1	178	39	5	
5	0	0	0	0	510	510	0	146	39	4	
6	0	0	0	0	511	511	0	90	39	5	
7	0	0	0	0	509	510	0	47	39	5	
8	0	0	0	0	511	511	1	27	39	5	
9	0	0	0	0	503	510	0	10	39	5	
10	0	0	0	0	509	511	0	0	39	5	
11	0	0	0	0	506	512	0	7	39	4	
12	0	0	0	0	507	511	0	41	39	4	
13	0	0	0	0	510	511	0	103	39	4	
14	0	0	0	0	509	512	0	155	39	5	
15	0	0	0	0	510	512	0	169	39	5	
0	0	0	0	0	510	513	1	186	39	5	
1	0	0	0	0	508	512	0	221	39	5	
2	0	0	0	0	511	513	0	276	39	5	
3	0	0	0	0	514	513	0	310	39	4	
4	0	0	0	0	508	513	1	314	39	4	
5	0	0	0	0	515	514	0	313	39	4	
6	0	0	0	0	508	513	0	308	39	5	
7	0	0	0	0	507	512	0	313	39	5	
8	0	0	0	0	506	511	0	310	39	5	
9	0	0	0	0	505	509	0	287	39	5	
10	0	0	0	0	507	511	0	249	39	5	
11	0	0	0	0	511	512	0	204	39	4	
12	0	0	0	0	502	513	1	182	39	4	
13	0	0	0	0	515	512	0	155	39	4	
14	0	0	0	0	520	511	0	131	39	4	
15	0	0	0	0	513	513	0	142	39	5	
0	0	0	0	0	505	513	0	129	39	5	
1	0	0	0	0	507	513	0	70	39	5	
2	0	0	0	0	507	513	0	0	39	5	
3	0	0	0	0	507	514	0	0	39	4	
4	0	0	0	0	509	514	1	0	39	5	
5	0	0	0	0	514	512	0	108	39	4	
6	0	0	0	0	512	513	0	167	39	4	
7	0	0	0	0	505	513	0	184	39	5	
8	0	0	0	0	508	513	0	187	39	5	
9	0	0	0	0	508	513	0	217	39	5	
10	0	0	0	0	510	512	0	256	39	5	
11	0	0	0	0	512	514	0	286	39	5	
12	0	0	0	0	513	514	1	279	39	5	
13	0	0	0	0	508	513	0	308	39	4	
14	0	0	0	0	512	515	0	353	39	4	
15	0	0	0	0	504	512	0	364	39	4	
0	0	0	0	0	512	513	1	334	39	5	
1	0	0	0	0	512	512	0	308	39	5	
2	0	0	0	0	512	512	0	305	39	5	
3	0	0	0	0	510	513	0	284	39	5	
4	0	0	0	0	511	514	0	210	39	4	
5	0	0	0	0	510	512	0	123	39	4	
6	0	0	0	0	512	512	0	34	39	4	
7	0	0	0	0	513	512	0	0	39	5	
8	0	0	0	0	508	513	1	0	39	5	
9	0	0	0	0	517	511	0	0	39	5	
10	0	0	0	0	507	509	0	0	39	5	
11	0	0	0	0	504	510	0	0	39	5	
12	0	0	0	0	510	511	1	0	39	5	
13	0	0	0	0	510	510	0	0	39	5	
14	0	0	0	0	514	510	0	0	39	4	
15	0	0	0	0	508	510	0	0	39	4	
0	0	0	0	0	512	511	1	90	39	5	
1	0	0	0	0	510	510	0	96	39	5	
2	0	0	0	0	502	512	0	97	39	5	
3	0	0	0	0	510	514	0	94	39	5	
4	0	0	0	0	509	514	1	126	39	5	
5	0	0	0	0	511	513	0	168	39	4	
6	0	0	0	0	509	514	0	207	39	4	
7	0	0	0	0	512	512	0	239	39	4	
8	0	0	0	0	510	511	0	244	38	4	
9	0	0	0	0	511	511	0	203	39	5	
10	0	0	0	0	514	513	0	162	39	5	
11	0	0	0	0	511	513	0	125	39	5	
12	0	0	0	0	512	512	0	104	38	5	
13	0	0	0	0	508	512	0	112	38	4	
14	0	0	0	0	510	513	0	143	39	4	
15	0	0	0	0	507	513	0	195	38	4	
0	0	0	0	0	515	513	1	254	38	5	
1	0	0	0	0	513	512	0	275	38	5	
2	0	0	0	0	509	511	0	276	38	5	
3	0	0	0	0	503	512	0	261	38	5	
4	0	0	0	0	510	512	1	252	38	5	
5	0	0	0	0	511	511	0	254	38	4	
6	0	0	0	0	512	513	0	249	39	4	
7	0	0	0	0	512	513	0	265	38	4	
8	0	0	0	0	508	512	0	303	39	4	
9	0	0	0	0	508	512	0	343	39	5	
10	0	0	0	0	512	512	0	368	39	5	
11	0	0	0	0	504	512	0	370	39	5	
12	0	0	0	0	513	512	1	376	39	5	
13	0	0	0	0	504	513	0	359	39	5	
14	0	0	0	0	510	514	0	332	39	4	
15	0	0	0	0	508	514	0	302	39	4	
0	0	0	0	0	514	514	0	295	39	4	
1	0	0	0	0	507	515	0	265	39	4	
2	0	0	0	0	504	516	0	244	39	5	
3	0	0	0	0	511	518	0	231	39	5	
4	0	0	0	0	514	517	1	219	39	5	
5	0	0	0	0	514	515	0	238	39	5	
6	0	0	0	0	509	514	0	239	39	4	
7	0	0	0	0	510	515	0	226	39	4	
8	0	0	0	0	512	515	0	220	39	4	
9	0	0	0	0	513	515	0	192	39	4	
10	0	0	0	0	512	513	0	149	39	5	
11	0	0	0	0	508	512	0	133	39	5	
12	0	0	0	0	511	513	0	151	39	5	
13	0	0	0	0	509	512	0	164	39	5	
14	0	0	0	0	510	513	0	188	39	5	
15	0	0	0	0	519	515	0	210	39	4	
0	0	0	0	0	513	515	0	240	38	4	
1	0	0	0	0	507	514	0	263	39	4	
2	0	0	0	0	508	516	0	255	39	5	
3	0	0	0	0	511	516	0	248	39	5	
4	0	0	0	0	510	515	1	276	39	5	
5	0	0	0	0	514	514	0	316	39	5	
6	0	0	0	0	506	516	0	353	39	5	
7	0	0	0	0	505	518	0	364	39	4	
8	0	0	0	0	503	517	1	336	38	4	
9	0	0	0	0	510	515	0	297	38	5	
10	0	0	0	0	505	514	0	296	39	4	
11	0	0	0	0	514	514	0	311	38	5	
12	0	0	0	0	508	513	0	310	39	5	
13	0	0	0	0	519	513	0	313	39	5	
14	0	0	0	0	509	513	0	334	39	5	
15	0	0	0	0	503	513	0	331	39	4	
0	0	0	0	0	508	511	0	312	39	4	
1	0	0	0	0	514	511	0	286	39	4	
2	0	0	0	0	504	512	0	273	39	5	
3	0	0	0	0	513	513	0	278	39	5	
4	0	0	0	0	511	512	0	287	39	5	
5	0	0	0	0	509	512	0	279	39	5	
6	0	0	0	0	510	514	0	232	39	5	
7	0	0	0	0	507	514	0	171	39	4	
8	0	0	0	0	504	511	0	118	38	4	
9	0	0	0	0	511	512	0	65	39	4	
10	0	0	0	0	511	512	0	30	39	4	
11	0	0	0	0	514	513	0	30	39	5	
12	0	0	0	0	508	515	1	72	39	5	
13	0	0	0	0	508	514	0	152	39	5	
14	0	0	0	0	514	515	0	206	39	5	
15	0	0	0	0	512	514	0	218	39	5	
0	0	0	0	0	511	513	0	231	39	4	
1	0	0	0	0	517	514	0	280	39	4	
2	0	0	0	0	513	514	0	314	39	4	
3	0	0	0	0	510	515	0	307	39	4	
4	0	0	0	0	512	513	0	294	38	5	
5	0	0	0	0	500	513	0	280	39	5	
6	0	0	0	0	504	511	0	263	38	5	
7	0	0	0	0	507	511	0	252	38	5	
8	0	0	0	0	517	509	0	259	39	4	
9	0	0	0	0	515	510	0	254	38	4	
10	0	0	0	0	513	510	0	229	38	4	
11	0	0	0	0	513	511	0	241	38	5	
12	0	0	0	0	515	512	1	256	38	5	
13	0	0	0	0	505	508	0	263	38	5	
14	0	0	0	0	507	508	0	258	38	5	
15	0	0	0	0	510	509	0	273	39	5	
0	0	0	0	0	510	512	1	296	38	5	
1	0	0	0	0	513	509	0	291	38	5	
2	0	0	0	0	513	511	0	294	38	4	
3	0	0	0	0	508	511	0	317	38	4	
4	0	0	0	0	508	511	1	316	38	5	
5	0	0	0	0	511	511	0	316	39	5	
6	0	0	0	0	516	511	0	317	39	5	
7	0	0	0	0	505	511	0	363	39	5	
8	0	0	0	0	513	512	1	398	39	5	
9	0	0	0	0	515	511	0	377	39	4	
10	0	0	0	0	510	512	0	340	39	4	
11	0	0	0	0	512	511	0	324	39	4	
12	0	0	0	0	511	511	1	324	39	5	
13	0	0	0	0	496	511	0	376	39	5	
14	0	0	0	0	506	512	0	407	39	5	
15	0	0	0	0	507	513	0	351	39	5	
0	0	0	0	0	511	513	0	290	39	5	
1	0	0	0	0	509	513	0	248	39	4	
2	0	0	0	0	512	511	0	219	39	4	
3	0	0	0	0	509	511	0	188	39	4	
4	0	0	0	0	518	513	1	163	39	5	
5	0	0	0	0	515	511	0	147	39	5	
6	0	0	0	0	509	510	0	121	39	5	
7	0	0	0	0	516	512	0	98	39	5	
8	0	0	0	0	510	513	1	123	39	5	
9	0	0	0	0	508	511	0	152	39	4	
10	0	0	0	0	508	512	0	148	39	4	
11	0	0	0	0	507	513	0	148	39	4	
12	0	0	0	0	511	512	0	172	39	4	
13	0	0	0	0	508	511	0	212	39	5	
14	0	0	0	0	513	512	0	200	39	5	
15	0	0	0	0	511	512	0	194	39	5	
0	0	0	0	0	507	514	1	216	39	5	
1	0	0	0	0	510	512	0	237	39	5	
2	0	0	0	0	509	511	0	320	39	4	
3	0	0	0	0	505	513	0	382	39	4	
4	0	0	0	0	510	512	0	391	39	4	
5	0	0	0	0	505	510	0	371	39	4	
6	0	0	0	0	510	510	0	365	39	5	
7	0	0	0	0	506	513	0	366	39	5	
8	0	0	0	0	511	515	1	379	39	5	
9	0	0	0	0	515	512	0	374	39	5	
10	0	0	0	0	514	513	0	363	39	4	
11	0	0	0	0	507	515	0	405	39	4	
12	0	0	0	0	512	515	0	452	39	5	
13	0	0	0	0	513	512	0	454	39	4	
14	0	0	0	0	508	512	0	418	39	5	
15	0	0	0	0	507	513	0	368	39	5	
0	0	0	0	0	505	512	1	310	39	5	
1	0	0	0	0	513	511	0	244	39	5	
2	0	0	0	0	509	513	0	195	39	4	
3	0	0	0	0	506	513	0	198	39	4	
4	0	0	0	0	511	512	1	241	39	4	
5	0	0	0	0	511	513	0	295	39	4	
6	0	0	0	0	511	513	0	355	39	5	
7	0	0	0	0	518	512	0	383	39	5	
8	0	0	0	0	508	512	1	377	39	5	
9	0	0	0	0	515	511	0	398	39	5	
10	0	0	0	0	511	511	0	453	39	5	
11	0	0	0	0	515	512	0	511	39	4	
12	0	0	0	0	511	512	1	502	39	4	
13	0	0	0	0	505	511	0	421	39	5	
14	0	0	0	0	509	509	0	331	39	5	
15	0	0	0	0	504	510	0	252	39	5	
0	0	0	0	0	508	511	0	189	39	5	
1	0	0	0	0	504	512	0	190	39	5	
2	0	0	0	0	508	512	0	244	39	5	
3	0	0	0	0	511	513	0	321	39	4	
4	0	0	0	0	510	513	1	371	39	4	
5	0	0	0	0	507	512	0	390	39	4	
6	0	0	0	0	506	511	0	428	39	4	
7	0	0	0	0	510	514	0	462	39	5	
8	0	0	0	0	508	511	0	418	39	5	
9	0	0	0	0	511	512	0	370	39	5	
10	0	0	0	0	515	513	0	384	39	5	
11	0	0	0	0	516	514	0	407	39	4	
12	0	0	0	0	511	513	0	388	39	4	
13	0	0	0	0	508	513	0	311	39	4	
14	0	0	0	0	514	513	0	264	39	4	
15	0	0	0	0	506	513	0	270	39	5	
0	0	0	0	0	509	512	0	262	39	5	
1	0	0	0	0	509	511	0	237	39	5	
2	0	0	0	0	515	513	0	251	39	5	
3	0	0	0	0	508	512	0	310	39	4	
4	0	0	0	0	513	513	0	385	39	4	
5	0	0	0	0	508	512	0	454	39	4	
6	0	0	0	0	508	513	0	526	39	4	
7	0	0	0	0	506	513	0	512	39	4	
8	0	0	0	0	512	512	1	409	39	5	
9	0	0	0	0	511	510	0	301	39	5	
10	0	0	0	0	519	512	0	284	39	5	
11	0	0	0	0	509	512	0	270	39	5	
12	0	0	0	0	506	511	1	256	39	5	
13	0	0	0	0	505	509	0	250	39	4	
14	0	0	0	0	501	510	0	224	39	4	
15	0	0	0	0	510	510	0	185	39	4	
0	0	0	0	0	516	507	0	129	39	5	
1	0	0	0	0	512	507	0	81	39	5	
2	0	0	0	0	514	509	0	13	39	5	
3	0	0	0	0	512	510	0	0	39	5	
4	0	0	0	0	508	510	0	0	39	4	
5	0	0	0	0	510	510	0	0	39	4	
6	0	0	0	0	513	510	0	0	39	4	
7	0	0	0	0	513	511	0	0	39	4	
8	0	0	0	0	508	512	0	57	39	5	
9	0	0	0	0	509	511	0	75	39	5	
10	0	0	0	0	508	511	0	75	39	5	
11	0	0	0	0	505	511	0	1	39	5	
12	0	0	0	0	502	510	1	0	39	5	
13	0	0	0	0	512	508	0	0	39	4	
14	0	0	0	0	515	508	0	0	39	4	
15	0	0	0	0	504	510	0	0	39	4	
0	0	0	0	0	510	511	0	0	39	4	
1	0	0	0	0	512	509	0	0	39	5	
2	0	0	0	0	516	510	0	0	39	5	
3	0	0	0	0	508	508	0	0	39	5	
4	0	0	0	0	506	508	0	0	39	5	
5	0	0	0	0	505	508	0	0	39	4	
6	0	0	0	0	514	508	0	0	39	4	
7	0	0	0	0	511	509	0	0	39	4	
8	0	0	0	0	509	511	1	0	39	5	
9	0	0	0	0	505	511	0	0	39	5	
10	0	0	0	0	516	511	0	0	39	5	
11	0	0	0	0	511	512	0	0	39	5	
12	0	0	0	0	515	511	0	0	39	5	
13	0	0	0	0	512	511	0	0	39	4	
14	0	0	0	0	510	512	0	0	39	4	
15	0	0	0	0	509	512	0	0	39	4	
0	0	0	0	0	508	513	1	0	39	5	
1	0	0	0	0	508	511	0	0	39	5	
2	0	0	0	0	514	512	0	0	39	5	
3	0	0	0	0	508	511	0	0	39	5	
4	0	0	0	0	514	511	0	0	39	4	
5	0	0	0	0	511	510	0	0	39	4	
6	0	0	0	0	512	510	0	0	39	4	
7	0	0	0	0	511	512	0	0	39	4	
8	0	0	0	0	510	513	0	0	39	4	
9	0	0	0	0	515	512	0	0	39	4	
10	0	0	0	0	511	513	0	0	39	5	
11	0	0	0	0	509	515	0	0	39	5	
12	0	0	0	0	508	513	0	0	39	5	
13	0	0	0	0	500	515	0	0	39	5	
14	0	0	0	0	509	514	0	0	39	5	
15	0	0	0	0	507	513	0	0	39	4	
0	0	0	0	0	509	512	1	0	39	5	
1	0	0	0	0	510	510	0	0	39	5	
2	0	0	0	0	513	512	0	0	39	5	
3	0	0	0	0	509	512	0	0	39	5	
4	0	0	0	0	505	512	0	0	39	5	
5	0	0	0	0	512	513	0	0	39	5	
6	0	0	0	0	512	513	0	0	39	4	
7	0	0	0	0	510	513	0	0	39	4	
8	0	0	0	0	514	514	1	0	39	4	
9	0	0	0	0	505	512	0	0	39	4	
10	0	0	0	0	505	512	0	0	39	5	
11	0	0	0	0	508	512	0	0	39	5	
12	0	0	0	0	507	512	1	0	39	5	
13	0	0	0	0	514	511	0	0	39	5	
14	0	0	0	0	515	510	0	0	39	5	
15	0	0	0	0	514	512	0	0	39	5	
0	0	0	0	0	507	511	1	0	39	5	
1	0	0	0	0	506	510	0	0	39	4	
2	0	0	0	0	511	510	0	0	39	5	
3	0	0	0	0	507	511	0	0	39	5	
4	0	0	0	0	516	511	1	0	39	5	
5	0	0	0	0	506	510	0	0	39	5	
6	0	0	0	0	522	509	0	0	39	5	
7	0	0	0	0	509	512	0	0	38	4	
8	0	0	0	0	509	512	0	0	38	4	
9	0	0	0	0	510	511	0	0	39	4	
10	0	0	0	0	512	511	0	0	39	4	
11	0	0	0	0	508	510	0	0	39	5	
12	0	0	0	0	508	511	1	0	38	5	
13	0	0	0	0	513	510	0	0	39	5	
14	0	0	0	0	514	511	0	0	38	5	
15	0	0	0	0	513	512	0	0	38	5	
0	0	0	0	0	510	511	0	0	38	4	
1	0	0	0	0	515	511	0	0	38	4	
2	0	0	0	0	512	513	0	0	38	5	
3	0	0	0	0	513	513	0	0	38	5	
4	0	0	0	0	508	511	0	0	38	5	
5	0	0	0	0	511	512	0	0	39	5	
6	0	0	0	0	512	511	0	0	39	5	
7	0	0	0	0	508	511	0	0	39	4	
8	0	0	0	0	506	511	1	0	39	5	
9	0	0	0	0	507	509	0	0	39	4	
10	0	0	0	0	516	511	0	0	39	4	
11	0	0	0	0	512	511	0	0	39	5	
12	0	0	0	0	505	511	0	0	39	5	
13	0	0	0	0	510	511	0	0	39	5	
14	0	0	0	0	514	511	0	0	39	5	
15	0	0	0	0	514	512	0	0	39	5	
0	0	0	0	0	503	512	1	0	39	5	
1	0	0	0	0	512	512	0	0	39	4	
2	0	0	0	0	510	511	0	0	39	5	
3	0	0	0	0	508	511	0	0	39	5	
4	0	0	0	0	510	511	1	0	39	5	
5	0	0	0	0	509	511	0	0	39	5	
6	0	0	0	0	511	510	0	0	39	5	
7	0	0	0	0	508	510	0	0	39	5	
8	0	0	0	0	513	510	0	0	39	4	
9	0	0	0	0	511	511	0	0	39	4	
10	0	0	0	0	504	512	0	0	39	4	
11	0	0	0	0	507	514	0	0	39	4	
12	0	0	0	0	514	513	0	0	39	5	
13	0	0	0	0	511	513	0	0	39	5	
14	0	0	0	0	515	515	0	0	39	5	
15	0	0	0	0	508	517	0	0	39	5	
0	0	0	0	0	513	516	0	0	39	5	
1	0	0	0	0	510	515	0	0	39	5	
2	0	0	0	0	508	515	0	0	39	4	
3	0	0	0	0	512	515	0	0	39	5	
4	0	0	0	0	507	515	0	0	39	5	
5	0	0	0	0	505	515	0	0	39	5	
6	0	0	0	0	509	515	0	0	39	5	
7	0	0	0	0	513	516	0	0	39	5	
8	0	0	0	0	511	515	1	0	38	5	
9	0	0	0	0	517	515	0	0	38	4	
10	0	0	0	0	504	515	0	0	38	4	
11	0	0	0	0	509	514	0	0	38	4	
12	0	0	0	0	504	513	1	0	38	4	
13	0	0	0	0	514	513	0	0	38	5	
14	0	0	0	0	515	513	0	0	38	5	
15	0	0	0	0	515	513	0	0	38	5	
0	0	0	0	0	509	513	0	0	38	5	
1	0	0	0	0	509	513	0	0	38	4	
2	0	0	0	0	510	513	0	0	38	4	
3	0	0	0	0	508	512	0	0	38	4	
4	0	0	0	0	508	512	1	0	38	5	
5	0	0	0	0	516	513	0	0	38	5	
6	0	0	0	0	504	515	0	0	38	5	
7	0	0	0	0	512	518	0	0	38	5	
8	0	0	0	0	515	514	0	0	38	4	
9	0	0	0	0	507	515	0	0	39	4	
10	0	0	0	0	510	515	0	0	39	4	
11	0	0	0	0	514	516	0	0	39	4	
12	0	0	0	0	515	517	1	0	39	5	
13	0	0	0	0	506	512	0	0	39	4	
14	0	0	0	0	510	515	0	0	39	5	
15	0	0	0	0	508	515	0	0	38	5	
0	0	0	0	0	512	514	0	0	38	5	
1	0	0	0	0	512	514	0	0	38	5	
2	0	0	0	0	511	515	0	0	39	4	
3	0	0	0	0	511	513	0	0	38	4	
4	0	0	0	0	503	511	0	0	38	4	
5	0	0	0	0	513	510	0	0	38	4	
6	0	0	0	0	506	511	0	0	38	5	
7	0	0	0	0	508	513	0	0	38	5	
8	0	0	0	0	508	514	1	0	38	5	
9	0	0	0	0	512	513	0	0	38	5	
10	0	0	0	0	511	513	0	0	38	4	
11	0	0	0	0	510	514	0	0	38	4	
12	0	0	0	0	515	512	0	0	39	4	
13	0	0	0	0	506	512	0	0	38	4	
14	0	0	0	0	518	513	0	0	39	5	
15	0	0	0	0	508	513	0	0	38	5	
0	0	0	0	0	513	512	1	0	39	5	
1	0	0	0	0	507	511	0	0	39	5	
2	0	0	0	0	508	511	0	0	39	4	
3	0	0	0	0	505	510	0	0	39	4	
4	0	0	0	0	513	510	1	0	38	4	
5	0	0	0	0	514	510	0	0	38	5	
6	0	0	0	0	502	511	0	0	39	4	
7	0	0	0	0	510	511	0	0	38	5	
8	0	0	0	0	508	512	1	0	39	5	
9	0	0	0	0	513	511	0	0	39	5	
10	0	0	0	0	509	511	0	0	39	5	
11	0	0	0	0	514	512	0	0	38	4	
12	0	0	0	0	508	511	1	0	38	4	
13	0	0	0	0	506	510	0	0	39	4	
14	0	0	0	0	511	511	0	0	39	4	
15	0	0	0	0	513	511	0	0	38	5	
0	0	0	0	0	506	509	0	0	39	5	
1	0	0	0	0	508	510	0	0	39	5	
2	0	0	0	0	504	513	0	0	39	5	
3	0	0	0	0	508	512	0	0	38	4	
4	0	0	0	0	514	512	0	0	39	4	
5	0	0	0	0	513	511	0	0	39	4	
6	0	0	0	0	508	511	0	0	39	4	
7	0	0	0	0	514	511	0	0	39	5	
8	0	0	0	0	505	512	1	0	39	5	
9	0	0	0	0	509	512	0	0	39	5	
10	0	0	0	0	515	511	0	0	39	5	
11	0	0	0	0	513	511	0	0	39	4	
12	0	0	0	0	506	512	0	0	39	4	
13	0	0	0	0	512	511	0	0	39	4	
14	0	0	0	0	507	512	0	0	39	4	
15	0	0	0	0	510	512	0	0	39	4	
0	0	0	0	0	506	513	1	0	39	5	
1	0	0	0	0	508	513	0	0	39	5	
2	0	0	0	0	505	513	0	0	39	5	
3	0	0	0	0	512	514	0	0	38	4	
4	0	0	0	0	512	514	1	0	39	4	
5	0	0	0	0	508	512	0	0	39	4	
6	0	0	0	0	509	511	0	0	39	4	
7	0	0	0	0	511	511	0	0	39	4	
8	0	0	0	0	505	509	0	0	39	5	
9	0	0	0	0	504	510	0	0	39	5	
10	0	0	0	0	516	511	0	0	39	5	
11	0	0	0	0	509	511	0	0	39	5	
12	0	0	0	0	512	510	0	0	39	4	
13	0	0	0	0	510	511	0	0	39	4	
14	0	0	0	0	512	511	0	94	39	4	
15	0	0	0	0	518	513	0	191	39	4	
0	0	0	0	0	511	511	0	221	39	5	
1	0	0	0	0	514	510	0	200	39	5	
2	0	0	0	0	508	510	0	252	39	5	
3	0	0	0	0	503	510	0	303	39	4	
4	0	0	0	0	511	511	1	275	39	5	
5	0	0	0	0	504	510	0	204	39	4	
6	0	0	0	0	511	510	0	140	39	4	
7	0	0	0	0	509	509	0	111	39	4	
8	0	0	0	0	505	512	1	172	38	5	
9	0	0	0	0	511	512	0	255	39	5	
10	0	0	0	0	509	510	0	325	38	5	
11	0	0	0	0	513	511	0	423	38	5	
12	0	0	0	0	512	510	0	486	38	5	
13	0	0	0	0	511	508	0	540	39	4	
14	0	0	0	0	508	509	0	620	38	4	
15	0	0	0	0	515	510	0	695	38	4	
0	0	0	0	0	509	511	1	704	38	5	
1	0	0	0	0	510	509	0	696	38	5	
2	0	0	0	0	508	508	0	707	39	5	
3	0	0	0	0	510	510	0	741	39	5	
4	0	0	0	0	512	512	0	798	39	5	
5	0	0	0	0	513	512	0	837	39	4	
6	0	0	0	0	504	511	0	852	39	4	
7	0	0	0	0	515	511	0	845	39	4	
8	0	0	0	0	512	509	1	809	39	5	
9	0	0	0	0	505	509	0	806	39	5	
10	0	0	0	0	513	510	0	840	39	5	
11	0	0	0	0	513	510	0	891	39	5	
12	0	0	0	0	511	510	0	944	39	4	
13	0	0	0	0	506	511	0	1009	39	4	
14	0	0	0	0	510	513	0	1018	39	4	
15	0	0	0	0	511	512	0	1017	39	4	
0	0	0	0	0	509	511	0	1017	39	4	
1	0	0	0	0	505	511	0	1018	39	4	
2	0	0	0	0	513	510	0	1018	39	5	
3	0	0	0	0	509	512	0	1017	39	5	
4	0	0	0	0	507	513	1	1019	39	5	
5	0	0	0	0	511	512	0	1018	39	5	
6	0	0	0	0	509	511	0	1018	39	4	
7	0	0	0	0	505	512	0	1018	39	4	
8	0	0	0	0	515	514	1	1019	39	4	
9	0	0	0	0	513	512	0	1018	39	4	
10	0	0	0	0	509	513	0	1018	39	5	
11	0	0	0	0	512	513	0	1018	39	5	
12	0	0	0	0	505	512	1	1019	39	5	
13	0	0	0	0	511	509	0	1018	39	5	
14	0	0	0	0	510	511	0	1018	39	4	
15	0	0	0	0	514	514	0	1018	39	4	
0	0	0	0	0	515	512	1	1019	39	4	
1	0	0	0	0	511	510	0	1018	39	4	
2	0	0	0	0	513	509	0	1018	39	5	
3	0	0	0	0	511	512	0	1018	39	5	
4	0	0	0	0	502	514	1	1019	39	5	
5	0	0	0	0	509	514	0	1018	39	5	
6	0	0	0	0	511	514	0	1018	39	5	
7	0	0	0	0	518	513	0	1018	39	4	
8	0	0	0	0	511	512	1	1019	39	4	
9	0	0	0	0	501	511	0	1018	39	4	
10	0	0	0	0	511	512	0	1018	39	5	
11	0	0	0	0	512	512	0	1018	39	5	
12	0	0	0	0	511	512	1	1019	39	5	
13	0	0	0	0	520	511	0	1018	39	5	
14	0	0	0	0	507	512	0	1018	39	5	
15	0	0	0	0	502	513	0	1018	39	4	
0	0	0	0	0	513	514	1	1019	39	4	
1	0	0	0	0	511	515	0	1018	39	4	
2	0	0	0	0	515	515	0	1018	39	4	
3	0	0	0	0	514	514	0	1018	39	5	
4	0	0	0	0	508	512	1	1018	39	5	
5	0	0	0	0	510	512	0	1018	39	5	
6	0	0	0	0	511	512	0	1018	39	5	
7	0	0	0	0	512	511	0	1018	39	4	
8	0	0	0	0	508	510	0	1018	39	4	
9	0	0	0	0	502	510	0	1018	39	4	
10	0	0	0	0	512	511	0	1018	39	4	
11	0	0	0	0	515	513	0	1018	39	5	
12	0	0	0	0	510	512	1	1018	39	5	
13	0	0	0	0	508	513	0	1018	39	5	
14	0	0	0	0	513	513	0	1018	39	5	
15	0	0	0	0	512	513	0	1018	39	5	
0	0	0	0	0	509	513	1	1018	39	4	
1	0	0	0	0	512	512	0	1018	39	4	
2	0	0	0	0	511	513	0	1018	39	4	
3	0	0	0	0	508	513	0	1018	39	5	
4	0	0	0	0	509	513	0	1018	39	5	
5	0	0	0	0	508	514	0	1018	39	5	
6	0	0	0	0	511	513	0	1018	39	5	
7	0	0	0	0	507	513	0	1018	39	5	
8	0	0	0	0	506	511	1	1019	39	4	
9	0	0	0	0	508	511	0	1018	39	4	
10	0	0	0	0	512	512	0	1018	39	4	
11	0	0	0	0	503	512	0	1018	39	4	
12	0	0	0	0	507	513	1	1019	39	5	
13	0	0	0	0	513	513	0	1018	39	5	
14	0	0	0	0	519	512	0	1018	39	5	
15	0	0	0	0	510	513	0	1018	39	5	
0	0	0	0	0	508	512	1	1018	39	4	
1	0	0	0	0	513	513	0	1018	39	4	
2	0	0	0	0	511	514	0	1018	39	4	
3	0	0	0	0	512	515	0	1018	39	4	
4	0	0	0	0	511	513	1	1019	39	5	
5	0	0	0	0	501	513	0	1018	39	5	
6	0	0	0	0	509	514	0	1018	39	5	
7	0	0	0	0	517	515	0	1018	39	5	
8	0	0	0	0	507	515	0	1019	39	4	
9	0	0	0	0	505	515	0	1018	39	4	
10	0	0	0	0	510	513	0	1018	39	4	
11	0	0	0	0	512	513	0	1017	39	4	
12	0	0	0	0	515	512	0	1017	39	5	
13	0	0	0	0	503	512	0	840	39	5	
14	0	0	0	0	512	512	0	715	39	5	
15	0	0	0	0	510	512	0	609	39	5	
0	0	0	0	0	512	511	0	541	39	5	
1	0	0	0	0	516	512	0	480	39	4	
2	0	0	0	0	515	511	0	347	39	4	
3	0	0	0	0	514	511	0	157	39	4	
4	0	0	0	0	514	512	1	34	39	5	
5	0	0	0	0	501	512	0	25	39	5	
6	0	0	0	0	508	510	0	0	39	5	
7	0	0	0	0	511	510	0	0	39	5	
8	0	0	0	0	508	511	1	0	39	5	
9	0	0	0	0	510	511	0	0	39	4	
10	0	0	0	0	506	512	0	0	39	4	
11	0	0	0	0	510	512	0	0	39	4	
12	0	0	0	0	512	509	0	0	39	4	
13	0	0	0	0	511	510	0	0	39	5	
14	0	0	0	0	511	513	0	0	39	5	
15	0	0	0	0	508	511	0	0	39	5	
0	0	0	0	0	509	511	1	0	39	5	
1	0	0	0	0	513	510	0	0	39	4	
2	0	0	0	0	506	511	0	0	39	4	
3	0	0	0	0	515	513	0	0	39	4	
4	0	0	0	0	507	514	0	0	39	4	
5	0	0	0	0	506	513	0	0	39	4	
6	0	0	0	0	514	512	0	0	39	5	
7	0	0	0	0	509	514	0	0	39	5	
8	0	0	0	0	512	514	1	0	39	5	
9	0	0	0	0	510	513	0	0	39	5	
10	0	0	0	0	505	512	0	0	39	4	
11	0	0	0	0	502	513	0	0	39	4	
12	0	0	0	0	512	514	1	0	39	5	
13	0	0	0	0	510	514	0	0	39	4	
14	0	0	0	0	508	515	0	0	39	5	
15	0	0	0	0	511	514	0	0	39	5	
0	0	0	0	0	514	512	1	0	39	5	
1	0	0	0	0	509	513	0	0	39	5	
2	0	0	0	0	514	513	0	0	39	4	
3	0	0	0	0	510	514	0	0	39	4	
4	0	0	0	0	513	515	1	0	39	4	
5	0	0	0	0	510	514	0	0	39	4	
6	0	0	0	0	504	515	0	0	39	5	
7	0	0	0	0	504	513	0	0	39	5	
8	0	0	0	0	513	513	0	0	39	5	
9	0	0	0	0	516	513	0	0	39	5	
10	0	0	0	0	516	514	0	0	39	5	
11	0	0	0	0	516	516	0	0	39	4	
12	0	0	0	0	512	514	0	0	39	4	
13	0	0	0	0	504	513	0	0	39	5	
14	0	0	0	0	508	512	0	0	39	5	
15	0	0	0	0	507	514	0	0	39	5	
0	0	0	0	0	516	514	1	0	39	5	
1	0	0	0	0	513	512	0	0	39	5	
2	0	0	0	0	509	512	0	0	39	5	
3	0	0	0	0	507	511	0	0	39	4	
4	0	0	0	0	508	512	0	0	39	4	
5	0	0	0	0	514	515	0	0	39	4	
6	0	0	0	0	512	515	0	0	39	5	
7	0	0	0	0	509	515	0	0	39	5	
8	0	0	0	0	507	515	1	0	39	5	
9	0	0	0	0	507	513	0	0	39	5	
10	0	0	0	0	503	515	0	0	39	5	
11	0	0	0	0	513	517	0	0	39	4	
12	0	0	0	0	511	515	1	0	39	4	
13	0	0	0	0	506	515	0	0	39	4	
14	0	0	0	0	513	516	0	0	39	4	
15	0	0	0	0	511	516	0	0	39	5	
0	0	0	0	0	512	513	0	0	39	5	
1	0	0	0	0	511	513	0	0	39	5	
2	0	0	0	0	507	512	0	0	39	5	
3	0	0	0	0	511	513	0	0	39	5	
4	0	0	0	0	511	512	0	0	39	4	
5	0	0	0	0	510	511	0	0	39	4	
6	0	0	0	0	505	511	0	0	39	4	
7	0	0	0	0	510	512	0	0	39	4	
8	0	0	0	0	508	511	0	0	39	5	
9	0	0	0	0	512	511	0	0	39	5	
10	0	0	0	0	510	512	0	0	39	5	
11	0	0	0	0	512	512	0	0	39	5	
12	0	0	0	0	512	513	1	0	39	4	
13	0	0	0	0	507	513	0	0	39	4	
14	0	0	0	0	508	512	0	0	39	4	
15	0	0	0	0	519	514	0	0	39	5	
0	0	0	0	0	512	514	1	0	39	5	
1	0	0	0	0	514	512	0	0	39	5	
2	0	0	0	0	510	514	0	0	39	5	
3	0	0	0	0	504	515	0	0	39	5	
4	0	0	0	0	511	516	1	0	38	5	
5	0	0	0	0	513	514	0	0	39	5	
6	0	0	0	0	502	514	0	0	38	4	
7	0	0	0	0	510	514	0	0	38	4	
8	0	0	0	0	511	514	0	0	38	5	
9	0	0	0	0	516	513	0	0	38	5	
10	0	0	0	0	508	513	0	0	38	5	
11	0	0	0	0	511	514	0	0	38	5	
12	0	0	0	0	511	515	0	0	38	4	
13	0	0	0	0	505	515	0	61	39	4	
14	0	0	0	0	509	515	0	12	39	4	
15	0	0	0	0	509	515	0	0	39	4	
0	0	0	0	0	513	512	0	0	39	4	
1	0	0	0	0	504	514	0	0	39	5	
2	0	0	0	0	511	514	0	0	39	5	
3	0	0	0	0	511	516	0	143	39	5	
4	0	0	0	0	513	515	0	241	39	5	
5	0	0	0	0	510	514	0	315	39	4	
6	0	0	0	0	514	513	0	346	39	4	
7	0	0	0	0	514	514	0	332	39	4	
8	0	0	0	0	513	514	1	355	39	5	
9	0	0	0	0	508	511	0	399	39	5	
10	0	0	0	0	504	512	0	400	39	5	
11	0	0	0	0	507	515	0	406	39	5	
12	0	0	0	0	518	514	0	385	39	5	
13	0	0	0	0	514	513	0	333	39	4	
14	0	0	0	0	507	514	0	271	39	5	
15	0	0	0	0	507	515	0	302	39	4	
0	0	0	0	0	507	515	1	357	39	5	
1	0	0	0	0	514	513	0	429	39	5	
2	0	0	0	0	511	513	0	550	39	5	
3	0	0	0	0	515	514	0	671	39	5	
4	0	0	0	0	510	515	1	723	39	5	
5	0	0	0	0	506	515	0	701	38	5	
6	0	0	0	0	508	515	0	710	38	4	
7	0	0	0	0	507	515	0	774	38	4	
8	0	0	0	0	514	515	1	817	38	5	
9	0	0	0	0	512	512	0	825	38	4	
10	0	0	0	0	505	512	0	853	38	5	
11	0	0	0	0	512	513	0	904	38	5	
12	0	0	0	0	512	515	1	979	38	5	
13	0	0	0	0	506	514	0	1018	38	5	
14	0	0	0	0	509	512	0	1018	38	5	
15	0	0	0	0	511	513	0	1017	38	4	
0	0	0	0	0	506	512	1	1019	38	5	
1	0	0	0	0	511	511	0	1018	39	5	
2	0	0	0	0	510	513	0	1018	39	5	
3	0	0	0	0	513	515	0	1017	39	5	
4	0	0	0	0	509	514	0	1018	39	5	
5	0	0	0	0	512	515	0	1018	39	5	
6	0	0	0	0	515	515	0	1018	39	5	
7	0	0	0	0	507	515	0	1018	39	4	
8	0	0	0	0	513	514	1	1019	39	4	
9	0	0	0	0	505	512	0	1018	39	4	
10	0	0	0	0	512	513	0	1018	39	5	
11	0	0	0	0	509	512	0	1018	39	5	
12	0	0	0	0	511	515	1	1019	39	5	
13	0	0	0	0	513	515	0	1018	39	5	
14	0	0	0	0	511	513	0	1018	39	5	
15	0	0	0	0	508	513	0	1018	39	4	
0	0	0	0	0	513	512	1	1018	39	4	
1	0	0	0	0	511	512	0	1018	39	5	
2	0	0	0	0	511	513	0	1018	39	5	
3	0	0	0	0	506	514	0	1018	39	5	
4	0	0	0	0	514	514	1	1019	39	5	
5	0	0	0	0	514	512	0	1018	39	5	
6	0	0	0	0	504	512	0	1018	39	5	
7	0	0	0	0	511	513	0	1018	39	4	
8	0	0	0	0	507	512	1	1019	39	4	
9	0	0	0	0	507	511	0	1018	39	4	
10	0	0	0	0	505	512	0	1018	39	5	
11	0	0	0	0	513	511	0	1018	39	5	
12	0	0	0	0	508	512	1	1019	39	5	
13	0	0	0	0	509	512	0	1018	39	5	
14	0	0	0	0	509	516	0	1018	39	5	
15	0	0	0	0	513	516	0	1018	39	5	
0	0	0	0	0	508	515	1	1019	39	5	
1	0	0	0	0	506	512	0	1018	39	4	
2	0	0	0	0	512	513	0	1018	39	5	
3	0	0	0	0	513	514	0	1018	39	5	
4	0	0	0	0	515	515	1	1019	39	5	
5	0	0	0	0	513	513	0	1018	39	5	
6	0	0	0	0	513	514	0	1018	39	5	
7	0	0	0	0	503	515	0	1018	39	5	
8	0	0	0	0	515	515	1	1019	39	5	
9	0	0	0	0	506	515	0	1018	39	4	
10	0	0	0	0	515	515	0	1018	39	5	
11	0	0	0	0	508	517	0	1018	39	5	
12	0	0	0	0	510	513	1	1018	39	5	
13	0	0	0	0	511	512	0	1018	39	5	
14	0	0	0	0	511	511	0	1018	39	5	
15	0	0	0	0	511	511	0	1018	39	5	
0	0	0	0	0	506	511	0	1018	39	4	
1	0	0	0	0	508	511	0	1018	39	4	
2	0	0	0	0	515	511	0	1018	39	5	
3	0	0	0	0	511	511	0	1018	39	5	
4	0	0	0	0	509	512	1	1019	39	5	
5	0	0	0	0	512	512	0	1018	39	5	
6	0	0	0	0	514	512	0	1018	39	5	
7	0	0	0	0	505	513	0	1018	39	5	
8	0	0	0	0	515	511	1	1019	39	4	
9	0	0	0	0	509	513	0	1018	39	5	
10	0	0	0	0	519	509	0	1018	39	4	
11	0	0	0	0	511	511	0	1018	39	4	
12	0	0	0	0	503	510	1	1019	39	5	
13	0	0	0	0	508	511	0	1018	39	5	
14	0	0	0	0	507	511	0	1018	39	5	
15	0	0	0	0	515	512	0	1018	39	5	
0	0	0	0	0	510	515	1	1019	39	5	
1	0	0	0	0	512	513	0	1018	39	4	
2	0	0	0	0	515	512	0	1018	39	4	
3	0	0	0	0	510	512	0	1018	39	4	
4	0	0	0	0	508	510	1	1019	39	4	
5	0	0	0	0	512	509	0	1018	39	5	
6	0	0	0	0	512	510	0	1018	39	5	
7	0	0	0	0	504	511	0	1018	39	5	
8	0	0	0	0	513	510	0	1019	39	5	
9	0	0	0	0	509	511	0	1018	39	4	
10	0	0	0	0	510	511	0	1018	39	4	
11	0	0	0	0	509	512	0	1018	39	5	
12	0	0	0	0	506	510	1	1018	39	4	
13	0	0	0	0	513	511	0	1018	39	5	
14	0	0	0	0	513	510	0	1018	39	5	
15	0	0	0	0	513	510	0	1018	39	5	
0	0	0	0	0	514	509	1	1019	39	5	
1	0	0	0	0	516	509	0	1018	39	5	
2	0	0	0	0	504	510	0	1018	39	4	
3	0	0	0	0	504	509	0	1018	39	4	
4	0	0	0	0	511	510	1	1019	39	5	
5	0	0	0	0	515	512	0	1018	39	5	
6	0	0	0	0	510	510	0	1018	39	5	
7	0	0	0	0	511	511	0	1018	39	5	
8	0	0	0	0	507	511	1	1019	39	5	
9	0	0	0	0	507	509	0	1018	39	5	
10	0	0	0	0	507	510	0	1018	39	5	
11	0	0	0	0	508	510	0	1018	39	4	
12	0	0	0	0	511	511	1	1019	39	5	
13	0	0	0	0	517	511	0	1018	39	5	
14	0	0	0	0	511	511	0	1018	39	5	
15	0	0	0	0	511	512	0	1018	39	5	
0	0	0	0	0	508	515	1	1019	39	5	
1	0	0	0	0	508	514	0	1018	39	5	
2	0	0	0	0	507	512	0	1018	39	5	
3	0	0	0	0	512	513	0	1018	39	4	
4	0	0	0	0	515	512	1	1019	39	4	
5	0	0	0	0	514	510	0	1018	39	5	
6	0	0	0	0	510	511	0	1018	39	5	
7	0	0	0	0	506	510	0	1018	39	5	
8	0	0	0	0	515	512	1	1019	39	5	
9	0	0	0	0	509	509	0	1018	39	5	
10	0	0	0	0	512	509	0	1018	39	5	
11	0	0	0	0	506	510	0	1018	39	4	
12	0	0	0	0	509	513	1	1019	39	4	
13	0	0	0	0	514	512	0	1018	39	5	
14	0	0	0	0	512	513	0	1018	39	5	
15	0	0	0	0	506	513	0	1018	39	5	
0	0	0	0	0	506	512	1	1019	39	5	
1	0	0	0	0	508	512	0	1018	39	5	
2	0	0	0	0	518	512	0	1018	39	5	
3	0	0	0	0	515	511	0	1018	39	5	
4	0	0	0	0	510	510	2	1019	39	4	
5	0	0	0	0	514	511	0	1018	39	5	
6	0	0	0	0	511	512	0	1018	39	5	
7	0	0	0	0	503	514	0	1018	39	5	
8	0	0	0	0	512	513	1	1018	39	5	
9	0	0	0	0	507	512	0	1018	39	5	
10	0	0	0	0	503	513	0	1018	39	5	
11	0	0	0	0	512	513	0	1018	39	4	
12	0	0	0	0	509	511	1	1019	39	4	
13	0	0	0	0	512	513	0	1018	39	4	
14	0	0	0	0	515	513	0	1018	39	5	
15	0	0	0	0	512	512	0	1018	39	5	
0	0	0	0	0	506	511	1	1019	39	5	
1	0	0	0	0	508	510	0	1019	39	5	
2	0	0	0	0	507	513	0	1018	39	5	
3	0	0	0	0	517	515	0	1018	39	5	
4	0	0	0	0	504	515	1	1019	39	5	
5	0	0	0	0	518	512	0	1018	39	4	
6	0	0	0	0	512	514	0	1018	39	5	
7	0	0	0	0	503	513	0	1018	39	5	
8	0	0	0	0	509	512	1	1019	39	5	
9	0	0	0	0	515	512	0	1018	39	5	
10	0	0	0	0	512	511	0	1018	39	5	
11	0	0	0	0	510	512	0	1018	39	5	
12	0	0	0	0	511	512	1	1019	39	5	
13	0	0	0	0	510	513	0	1018	39	4	
14	0	0	0	0	508	515	0	1018	39	5	
15	0	0	0	0	512	516	0	1018	39	5	
0	0	0	0	0	510	514	1	1018	39	5	
1	0	0	0	0	511	515	0	1018	39	5	
2	0	0	0	0	505	515	0	1018	39	5	
3	0	0	0	0	508	515	0	1018	39	5	
4	0	0	0	0	506	512	1	1018	39	5	
5	0	0	0	0	514	511	0	1018	39	4	
6	0	0	0	0	510	513	0	1018	39	5	
7	0	0	0	0	509	514	0	1018	39	5	
8	0	0	0	0	506	513	1	1018	39	5	
9	0	0	0	0	505	513	0	1018	39	5	
10	0	0	0	0	509	512	0	1018	39	5	
11	0	0	0	0	512	512	0	1018	39	5	
12	0	0	0	0	510	513	1	1019	39	5	
13	0	0	0	0	509	513	0	1018	39	5	
14	0	0	0	0	512	512	0	1018	39	5	
15	0	0	0	0	505	512	0	1018	39	5	
0	0	0	0	0	513	511	0	1018	39	5	
1	0	0	0	0	506	511	0	1018	39	5	
2	0	0	0	0	512	511	0	1018	39	5	
3	0	0	0	0	511	508	0	1018	39	5	
4	0	0	0	0	513	509	0	1019	39	5	
5	0	0	0	0	515	510	0	1018	39	5	
6	0	0	0	0	509	510	0	1018	39	5	
7	0	0	0	0	509	511	0	1018	39	5	
8	0	0	0	0	501	513	1	1019	39	5	
9	0	0	0	0	506	511	0	1019	39	5	
10	0	0	0	0	508	511	0	1018	39	5	
11	0	0	0	0	515	513	0	1018	39	5	
12	0	0	0	0	505	512	1	1019	40	5	
13	0	0	0	0	510	513	0	1018	39	5	
14	0	0	0	0	515	511	0	1018	39	5	
15	0	0	0	0	506	512	0	1018	39	5	
0	0	0	0	0	513	511	1	1019	39	5	
1	0	0	0	0	517	513	0	1018	39	5	
2	0	0	0	0	515	513	0	1018	39	5	
3	0	0	0	0	506	514	0	1018	39	5	
4	0	0	0	0	509	515	1	1018	39	5	
5	0	0	0	0	506	514	0	1018	39	5	
6	0	0	0	0	511	514	0	1018	39	5	
7	0	0	0	0	510	514	0	1018	39	5	
8	0	0	0	0	515	514	1	1019	39	5	
9	0	0	0	0	497	513	0	1018	39	5	
10	0	0	0	0	509	512	0	1018	39	5	
11	0	0	0	0	508	513	0	1018	39	5	
12	0	0	0	0	511	512	1	1019	39	5	
13	0	0	0	0	513	511	0	1018	39	5	
14	0	0	0	0	508	513	0	1018	39	5	
15	0	0	0	0	514	512	0	1018	39	5	
0	0	0	0	0	521	512	1	1019	39	5	
1	0	0	0	0	515	511	0	1018	39	5	
2	0	0	0	0	513	511	0	1018	39	5	
3	0	0	0	0	504	512	0	1018	39	5	
4	0	0	0	0	514	512	1	1019	39	5	
5	0	0	0	0	511	512	0	1018	39	5	
6	0	0	0	0	508	510	0	1018	39	5	
7	0	0	0	0	511	511	0	1018	38	5	
8	0	0	0	0	511	511	1	1019	38	5	
9	0	0	0	0	509	511	0	1018	38	5	
10	0	0	0	0	506	512	0	1018	39	5	
11	0	0	0	0	510	512	0	1018	39	5	
12	0	0	0	0	511	513	1	1019	38	5	
13	0	0	0	0	508	512	0	1018	39	5	
14	0	0	0	0	509	512	0	1018	39	5	
15	0	0	0	0	513	513	0	1018	39	5	
0	0	0	0	0	510	511	1	1018	39	5	
1	0	0	0	0	509	510	0	1019	39	5	
2	0	0	0	0	514	511	0	1018	39	5	
3	0	0	0	0	508	512	0	1018	38	5	
4	0	0	0	0	516	514	1	1019	39	5	
5	0	0	0	0	505	514	0	1018	39	5	
6	0	0	0	0	511	512	0	1018	39	5	
7	0	0	0	0	510	512	0	1018	39	5	
8	0	0	0	0	508	509	1	1019	39	5	
9	0	0	0	0	514	510	0	1018	39	5	
10	0	0	0	0	511	510	0	1018	39	5	
11	0	0	0	0	517	511	0	1018	39	5	
12	0	0	0	0	507	510	0	1019	39	5	
13	0	0	0	0	503	512	0	1018	39	5	
14	0	0	0	0	507	512	0	1018	39	5	
15	0	0	0	0	511	513	0	1018	39	5	
0	0	0	0	0	511	511	1	1019	39	5	
1	0	0	0	0	512	512	0	1018	39	5	
2	0	0	0	0	509	513	0	1018	39	5	
3	0	0	0	0	510	514	0	1018	39	5	
4	0	0	0	0	518	514	1	1019	39	5	
5	0	0	0	0	510	514	0	1018	39	5	
6	0	0	0	0	506	514	0	1018	39	5	
7	0	0	0	0	510	515	0	1018	39	5	
8	0	0	0	0	510	516	1	1019	39	5	
9	0	0	0	0	508	513	0	1018	39	5	
10	0	0	0	0	501	513	0	1018	39	5	
11	0	0	0	0	511	514	0	1018	39	5	
12	0	0	0	0	514	514	1	1019	39	5	
13	0	0	0	0	508	514	0	1018	38	5	
14	0	0	0	0	507	514	0	1018	38	5	
15	0	0	0	0	515	515	0	1018	38	5	
0	0	0	0	0	512	514	1	1019	38	5	
1	0	0	0	0	512	513	0	1018	38	5	
2	0	0	0	0	515	512	0	1018	38	5	
3	0	0	0	0	512	512	0	1018	38	5	
4	0	0	0	0	514	512	1	1018	38	5	
5	0	0	0	0	509	513	0	1018	38	5	
6	0	0	0	0	507	512	0	1018	38	5	
7	0	0	0	0	513	514	0	1018	38	5	
8	0	0	0	0	511	512	1	1018	38	5	
9	0	0	0	0	512	513	0	1019	38	5	
10	0	0	0	0	512	514	0	1018	38	5	
11	0	0	0	0	512	514	0	1018	38	5	
12	0	0	0	0	515	513	1	1019	38	5	
13	0	0	0	0	507	512	0	1018	38	5	
14	0	0	0	0	509	511	0	1018	38	5	
15	0	0	0	0	507	512	0	1018	38	5	
0	0	0	0	0	517	515	2	1019	38	5	
1	0	0	0	0	507	513	0	1018	38	5	
2	0	0	0	0	511	512	0	1018	38	5	
3	0	0	0	0	509	514	0	1018	38	5	
4	0	0	0	0	510	514	1	1018	38	5	
5	0	0	0	0	515	514	0	1018	38	5	
6	0	0	0	0	508	515	0	1018	38	5	
7	0	0	0	0	511	514	0	1018	38	5	
8	0	0	0	0	512	513	1	1019	38	5	
9	0	0	0	0	511	511	0	1018	38	5	
10	0	0	0	0	504	513	0	1018	38	5	
11	0	0	0	0	514	514	0	1018	38	5	
12	0	0	0	0	510	514	1	1019	38	5	
13	0	0	0	0	509	513	0	1018	38	5	
14	0	0	0	0	510	515	0	1018	38	5	
15	0	0	0	0	511	515	0	1018	38	5	
0	0	0	0	0	510	516	1	1018	38	5	
1	0	0	0	0	515	515	0	1018	38	5	
2	0	0	0	0	512	516	0	1018	38	5	
3	0	0	0	0	505	516	0	1018	38	5	
4	0	0	0	0	510	516	1	1018	38	5	
5	0	0	0	0	513	516	0	1018	38	5	
6	0	0	0	0	505	514	0	1018	38	5	
7	0	0	0	0	507	515	0	1018	38	5	
8	0	0	0	0	510	515	1	1019	38	5	
9	0	0	0	0	520	514	0	1018	38	5	
10	0	0	0	0	512	514	0	1018	39	5	
11	0	0	0	0	502	514	0	1018	38	5	
12	0	0	0	0	508	515	1	1019	39	5	
13	0	0	0	0	514	515	0	1018	39	5	
14	0	0	0	0	517	515	0	1018	39	5	
15	0	0	0	0	511	516	0	1018	39	5	
0	0	0	0	0	514	515	1	1018	39	5	
1	0	0	0	0	508	514	0	1018	39	5	
2	0	0	0	0	505	513	0	1018	39	5	
3	0	0	0	0	514	513	0	1018	39	5	
4	0	0	0	0	510	511	1	1019	39	5	
5	0	0	0	0	512	511	0	1018	38	5	
6	0	0	0	0	508	511	0	1018	39	5	
7	0	0	0	0	509	512	0	1018	38	5	
8	0	0	0	0	507	513	2	1019	38	5	
9	0	0	0	0	510	514	0	1018	38	5	
10	0	0	0	0	511	512	0	1018	38	5	
11	0	0	0	0	508	511	0	1018	38	5	
12	0	0	0	0	511	512	1	1018	38	5	
13	0	0	0	0	509	512	0	1018	38	5	
14	0	0	0	0	503	512	0	1018	38	5	
15	0	0	0	0	512	512	0	1018	38	5	
0	0	0	0	0	513	512	1	1019	38	5	
1	0	0	0	0	509	511	0	1018	38	5	
2	0	0	0	0	509	510	0	1018	38	5	
3	0	0	0	0	515	513	0	1018	38	5	
4	0	0	0	0	512	512	1	1019	38	5	
5	0	0	0	0	518	509	0	1018	38	5	
6	0	0	0	0	509	511	0	1018	38	5	
7	0	0	0	0	508	511	0	1018	38	5	
8	0	0	0	0	511	510	1	1018	39	5	
9	0	0	0	0	512	511	0	1018	39	5	
10	0	0	0	0	515	512	0	1018	39	5	
11	0	0	0	0	504	512	0	1018	39	5	
12	0	0	0	0	511	513	1	1019	39	5	
13	0	0	0	0	511	514	0	1018	39	5	
14	0	0	0	0	509	514	0	1018	39	5	
15	0	0	0	0	513	513	0	1018	39	5	
0	0	0	0	0	510	513	1	1019	39	5	
1	0	0	0	0	512	512	0	1018	39	5	
2	0	0	0	0	513	512	0	1018	39	5	
3	0	0	0	0	507	512	0	1018	39	5	
4	0	0	0	0	512	512	1	1019	39	5	
5	0	0	0	0	511	511	0	1018	39	5	
6	0	0	0	0	515	512	0	1018	39	5	
7	0	0	0	0	512	514	0	1018	39	5	
8	0	0	0	0	510	514	1	1019	39	5	
9	0	0	0	0	505	513	0	1018	39	5	
10	0	0	0	0	506	513	0	1018	39	5	
11	0	0	0	0	507	513	0	1018	39	5	
12	0	0	0	0	514	514	1	1019	39	5	
13	0	0	0	0	502	513	0	1018	39	5	
14	0	0	0	0	507	512	0	1018	39	5	
15	0	0	0	0	514	511	0	1018	39	5	
0	0	0	0	0	510	510	1	1018	39	5	
1	0	0	0	0	513	511	0	1018	39	5	
2	0	0	0	0	512	511	0	1018	39	5	
3	0	0	0	0	507	512	0	1018	39	5	
4	0	0	0	0	508	510	1	1018	39	5	
5	0	0	0	0	507	512	0	1018	39	5	
6	0	0	0	0	512	513	0	1018	39	5	
7	0	0	0	0	512	511	0	1018	39	5	
8	0	0	0	0	506	511	1	1018	38	5	
9	0	0	0	0	511	510	0	1018	38	5	
10	0	0	0	0	512	511	0	1018	38	5	
11	0	0	0	0	511	511	0	1018	38	5	
12	0	0	0	0	510	510	1	1019	38	5	
13	0	0	0	0	514	511	0	1018	38	5	
14	0	0	0	0	516	512	0	1018	38	5	
15	0	0	0	0	511	513	0	1018	38	5	
0	0	0	0	0	508	514	1	1019	38	5	
1	0	0	0	0	509	511	0	1018	38	5	
2	0	0	0	0	506	510	0	1018	38	5	
3	0	0	0	0	507	512	0	1018	38	5	
4	0	0	0	0	510	510	1	1018	38	5	
5	0	0	0	0	506	510	0	1018	38	5	
6	0	0	0	0	510	511	0	1018	39	5	
7	0	0	0	0	511	513	0	1018	39	5	
8	0	0	0	0	515	512	1	1019	39	5	
9	0	0	0	0	511	510	0	1018	39	5	
10	0	0	0	0	509	512	0	1018	39	5	
11	0	0	0	0	509	511	0	1018	39	5	
12	0	0	0	0	520	510	1	1018	39	5	
13	0	0	0	0	506	510	0	1018	39	5	
14	0	0	0	0	510	511	0	1018	39	5	
15	0	0	0	0	514	509	0	1018	39	5	
0	0	0	0	0	509	509	1	1019	39	5	
1	0	0	0	0	510	510	0	1018	39	5	
2	0	0	0	0	508	511	0	1018	39	5	
3	0	0	0	0	511	512	0	1018	39	5	
4	0	0	0	0	512	511	1	1019	39	5	
5	0	0	0	0	512	509	0	1018	39	5	
6	0	0	0	0	513	508	0	1018	39	5	
7	0	0	0	0	511	510	0	1018	39	5	
8	0	0	0	0	508	510	1	1019	39	5	
9	0	0	0	0	504	510	0	1018	39	5	
10	0	0	0	0	515	509	0	1018	39	5	
11	0	0	0	0	514	511	0	1018	39	5	
12	0	0	0	0	502	512	1	1018	39	5	
13	0	0	0	0	509	513	0	1018	39	5	
14	0	0	0	0	508	513	0	1018	39	5	
15	0	0	0	0	506	513	0	1018	39	5	
0	0	0	0	0	504	512	1	1019	39	5	
1	0	0	0	0	509	511	0	1018	39	5	
2	0	0	0	0	510	511	0	1018	39	5	
3	0	0	0	0	508	512	0	1018	39	5	
4	0	0	0	0	512	513	1	1019	39	5	
5	0	0	0	0	519	513	0	1018	39	5	
6	0	0	0	0	514	513	0	1018	39	5	
7	0	0	0	0	516	513	0	1018	39	5	
8	0	0	0	0	507	515	1	1019	39	5	
9	0	0	0	0	508	513	0	1018	39	5	
10	0	0	0	0	508	512	0	1018	39	5	
11	0	0	0	0	509	513	0	1018	39	5	
12	0	0	0	0	508	513	1	1019	39	5	
13	0	0	0	0	511	512	0	1018	39	5	
14	0	0	0	0	516	510	0	1018	39	5	
15	0	0	0	0	510	511	0	1018	39	5	
0	0	0	0	0	507	511	1	1019	39	5	
1	0	0	0	0	507	508	0	1018	39	5	
2	0	0	0	0	513	508	0	1018	39	5	
3	0	0	0	0	505	509	0	1018	39	5	
4	0	0	0	0	512	509	1	1019	39	5	
5	0	0	0	0	510	509	0	1018	39	5	
6	0	0	0	0	510	511	0	1018	39	5	
7	0	0	0	0	510	511	0	1018	39	5	
8	0	0	0	0	513	512	1	1019	39	5	
9	0	0	0	0	510	512	0	1018	39	5	
10	0	0	0	0	513	513	0	1018	39	5	
11	0	0	0	0	504	513	0	1018	38	5	
12	0	0	0	0	508	512	1	1019	38	5	
13	0	0	0	0	506	511	0	1018	39	5	
14	0	0	0	0	511	513	0	1018	39	5	
15	0	0	0	0	514	513	0	1017	39	5	
0	0	0	0	0	515	512	1	1018	38	5	
1	0	0	0	0	508	511	0	1018	39	5	
2	0	0	0	0	514	512	0	1018	39	5	
3	0	0	0	0	509	511	0	1018	39	5	
4	0	0	0	0	506	511	1	1019	39	5	
5	0	0	0	0	508	509	0	1018	39	5	
6	0	0	0	0	510	510	0	1018	39	5	
7	0	0	0	0	510	510	0	1018	39	5	
8	0	0	0	0	515	513	1	1019	38	5	
9	0	0	0	0	515	512	0	1018	39	5	
10	0	0	0	0	512	512	0	1018	38	5	
11	0	0	0	0	508	512	0	1018	38	5	
12	0	0	0	0	509	510	0	1019	39	5	
13	0	0	0	0	502	508	0	1018	38	5	
14	0	0	0	0	513	511	0	1018	39	5	
15	0	0	0	0	506	512	0	1018	39	5	
0	0	0	0	0	515	511	1	1018	39	5	
1	0	0	0	0	510	510	0	1018	39	5	
2	0	0	0	0	507	512	0	1018	39	5	
3	0	0	0	0	508	513	0	1018	38	5	
4	0	0	0	0	507	513	1	1019	38	5	
5	0	0	0	0	505	512	0	1018	39	5	
6	0	0	0	0	507	511	0	1018	39	5	
7	0	0	0	0	513	510	0	1018	39	5	
8	0	0	0	0	511	512	1	1019	39	5	
9	0	0	0	0	510	513	0	1018	39	5	
10	0	0	0	0	510	513	0	1018	39	5	
11	0	0	0	0	513	514	0	1018	39	5	
12	0	0	0	0	506	512	1	1018	39	5	
13	0	0	0	0	514	512	0	1018	39	5	
14	0	0	0	0	515	511	0	1018	39	5	
15	0	0	0	0	512	514	0	1018	39	5	
0	0	0	0	0	511	513	1	1019	38	5	
1	0	0	0	0	511	511	0	1018	39	5	
2	0	0	0	0	511	511	0	1018	39	5	
3	0	0	0	0	506	512	0	1018	39	5	
4	0	0	0	0	512	512	1	1019	39	5	
5	0	0	0	0	511	512	0	1018	39	5	
6	0	0	0	0	510	512	0	1018	39	5	
7	0	0	0	0	506	511	0	1018	38	5	
8	0	0	0	0	511	511	1	1018	38	5	
9	0	0	0	0	512	510	0	1018	38	5	
10	0	0	0	0	511	513	0	1018	38	5	
11	0	0	0	0	512	511	0	1018	38	5	
12	0	0	0	0	511	512	1	1019	38	5	
13	0	0	0	0	508	510	0	1018	38	5	
14	0	0	0	0	515	512	0	1018	38	5	
15	0	0	0	0	508	511	0	1018	38	5	
0	0	0	0	0	508	510	0	1018	38	5	
1	0	0	0	0	506	511	0	1018	38	5	
2	0	0	0	0	508	511	0	1018	38	5	
3	0	0	0	0	513	512	0	1018	38	5	
4	0	0	0	0	513	510	1	1019	38	5	
5	0	0	0	0	516	510	0	1018	38	5	
6	0	0	0	0	507	511	0	1018	38	5	
7	0	0	0	0	510	513	0	1018	38	5	
8	0	0	0	0	512	515	1	1019	38	5	
9	0	0	0	0	512	515	0	1018	38	5	
10	0	0	0	0	507	514	0	1018	38	5	
11	0	0	0	0	512	513	0	1017	38	5	
12	0	0	0	0	511	513	1	1019	38	5	
13	0	0	0	0	512	511	0	1018	38	5	
14	0	0	0	0	510	510	0	1018	38	5	
15	0	0	0	0	507	510	0	1018	38	5	
0	0	0	0	0	511	511	1	1019	38	5	
1	0	0	0	0	512	511	0	1018	38	5	
2	0	0	0	0	517	512	0	993	38	5	
3	0	0	0	0	508	512	0	982	38	5	
4	0	0	0	0	511	513	1	960	38	5	
5	0	0	0	0	506	512	0	934	38	5	
6	0	0	0	0	509	512	0	921	38	5	
7	0	0	0	0	509	512	0	912	38	5	
8	0	0	0	0	514	512	1	907	38	5	
9	0	0	0	0	507	511	0	929	38	5	
10	0	0	0	0	508	513	0	967	38	5	
11	0	0	0	0	508	513	0	1014	38	5	
12	0	0	0	0	510	513	1	1019	38	5	
13	0	0	0	0	512	510	0	1018	38	5	
14	0	0	0	0	510	512	0	1018	38	5	
15	0	0	0	0	514	514	0	1017	38	5	
0	0	0	0	0	510	514	1	1019	38	5	
1	0	0	0	0	508	511	0	1018	38	5	
2	0	0	0	0	507	512	0	1018	38	5	
3	0	0	0	0	512	512	0	1018	38	5	
4	0	0	0	0	512	512	1	1019	38	5	
5	0	0	0	0	510	511	0	997	38	5	
6	0	0	0	0	512	511	0	988	38	5	
7	0	0	0	0	517	512	0	981	38	5	
8	0	0	0	0	502	512	1	982	38	5	
9	0	0	0	0	505	511	0	989	38	5	
10	0	0	0	0	515	512	0	995	38	5	
11	0	0	0	0	509	512	0	1000	38	5	
12	0	0	0	0	510	513	1	991	38	5	
13	0	0	0	0	508	512	0	984	38	5	
14	0	0	0	0	511	513	0	1004	38	5	
15	0	0	0	0	506	512	0	1017	38	5	
0	0	0	0	0	512	512	1	1019	38	5	
1	0	0	0	0	513	512	0	1018	38	5	
2	0	0	0	0	514	511	0	1018	38	5	
3	0	0	0	0	508	512	0	1017	38	5	
4	0	0	0	0	515	513	1	1019	38	5	
5	0	0	0	0	508	513	0	1018	38	5	
6	0	0	0	0	510	514	0	978	38	5	
7	0	0	0	0	510	513	0	966	38	5	
8	0	0	0	0	512	514	1	959	38	5	
9	0	0	0	0	518	513	0	952	38	5	
10	0	0	0	0	512	513	0	951	38	5	
11	0	0	0	0	517	514	0	942	38	5	
12	0	0	0	0	507	512	0	910	38	5	
13	0	0	0	0	512	512	0	865	38	5	
14	0	0	0	0	499	513	0	824	38	5	
15	0	0	0	0	505	514	0	792	38	5	
0	0	0	0	0	513	512	1	787	38	5	
1	0	0	0	0	505	511	0	785	38	5	
2	0	0	0	0	511	511	0	792	38	5	
3	0	0	0	0	508	511	0	799	38	5	
4	0	0	0	0	512	512	1	807	38	5	
5	0	0	0	0	511	510	0	826	38	5	
6	0	0	0	0	505	510	0	846	38	5	
7	0	0	0	0	511	511	0	871	38	5	
8	0	0	0	0	512	510	1	888	38	5	
9	0	0	0	0	512	511	0	916	38	5	
10	0	0	0	0	507	512	0	938	38	5	
11	0	0	0	0	514	513	0	961	38	5	
12	0	0	0	0	514	515	1	962	38	5	
13	0	0	0	0	515	512	0	954	38	5	
14	0	0	0	0	504	513	0	946	38	5	
15	0	0	0	0	512	512	0	931	38	5	
0	0	0	0	0	516	512	1	899	38	5	
1	0	0	0	0	509	513	0	872	38	5	
2	0	0	0	0	506	512	0	845	38	5	
3	0	0	0	0	506	512	0	810	38	5	
4	0	0	0	0	508	511	1	765	38	5	
5	0	0	0	0	506	512	0	731	38	5	
6	0	0	0	0	511	513	0	724	38	5	
7	0	0	0	0	513	516	0	728	38	5	
8	0	0	0	0	514	515	0	716	38	5	
9	0	0	0	0	502	513	0	694	38	5	
10	0	0	0	0	514	514	0	665	38	5	
11	0	0	0	0	507	514	0	641	38	5	
12	0	0	0	0	504	512	1	623	38	5	
13	0	0	0	0	506	510	0	622	38	5	
14	0	0	0	0	507	510	0	636	38	5	
15	0	0	0	0	509	511	0	679	38	5	
0	0	0	0	0	519	511	1	733	38	5	
1	0	0	0	0	517	508	0	786	38	5	
2	0	0	0	0	508	508	0	817	38	5	
3	0	0	0	0	513	509	0	825	38	5	
4	0	0	0	0	508	509	1	819	39	5	
5	0	0	0	0	506	509	0	804	38	5	
6	0	0	0	0	507	509	0	774	38	5	
7	0	0	0	0	503	508	0	754	38	5	
8	0	0	0	0	508	510	1	757	38	5	
9	0	0	0	0	508	509	0	773	38	5	
10	0	0	0	0	504	509	0	794	38	5	
11	0	0	0	0	513	512	0	826	38	5	
12	0	0	0	0	509	511	1	862	38	5	
13	0	0	0	0	512	512	0	881	38	5	
14	0	0	0	0	510	512	0	882	38	5	
15	0	0	0	0	514	512	0	892	39	5	
0	0	0	0	0	507	511	1	893	38	5	
1	0	0	0	0	511	512	0	900	38	5	
2	0	0	0	0	511	512	0	916	38	5	
3	0	0	0	0	514	512	0	903	38	5	
4	0	0	0	0	511	512	1	912	38	5	
5	0	0	0	0	511	514	0	898	38	5	
6	0	0	0	0	509	514	0	897	38	5	
7	0	0	0	0	507	513	0	870	38	5	
8	0	0	0	0	515	512	1	801	38	5	
9	0	0	0	0	507	510	0	721	38	5	
10	0	0	0	0	511	512	0	657	38	5	
11	0	0	0	0	506	512	0	630	38	5	
12	0	0	0	0	512	512	1	646	38	5	
13	0	0	0	0	506	509	0	682	38	5	
14	0	0	0	0	513	512	0	707	38	5	
15	0	0	0	0	503	511	0	715	38	5	
0	0	0	0	0	508	509	0	722	38	5	
1	0	0	0	0	516	510	0	750	38	5	
2	0	0	0	0	507	511	0	792	38	5	
3	0	0	0	0	504	514	0	820	38	5	
4	0	0	0	0	513	512	1	822	38	5	
5	0	0	0	0	512	512	0	807	38	5	
6	0	0	0	0	509	514	0	795	38	5	
7	0	0	0	0	513	514	0	795	38	5	
8	0	0	0	0	507	512	1	810	38	5	
9	0	0	0	0	511	511	0	831	38	5	
10	0	0	0	0	508	511	0	853	38	5	
11	0	0	0	0	511	512	0	871	38	5	
12	0	0	0	0	506	513	1	877	38	5	
13	0	0	0	0	514	510	0	859	38	5	
14	0	0	0	0	518	512	0	827	39	5	
15	0	0	0	0	511	513	0	787	39	5	
0	0	0	0	0	505	512	0	755	38	5	
1	0	0	0	0	508	512	0	724	38	5	
2	0	0	0	0	512	512	0	699	39	5	
3	0	0	0	0	510	512	0	707	39	5	
4	0	0	0	0	513	510	1	740	39	5	
5	0	0	0	0	504	510	0	769	39	5	
6	0	0	0	0	509	510	0	790	39	5	
7	0	0	0	0	511	510	0	800	39	5	
8	0	0	0	0	515	508	1	803	38	5	
9	0	0	0	0	517	508	0	804	39	5	
10	0	0	0	0	510	510	0	793	39	5	
11	0	0	0	0	509	512	0	781	38	5	
12	0	0	0	0	510	511	1	762	39	5	
13	0	0	0	0	518	512	0	735	39	5	
14	0	0	0	0	500	513	0	700	39	5	
15	0	0	0	0	512	513	0	668	39	5	
0	0	0	0	0	508	512	1	630	39	5	
1	0	0	0	0	510	513	0	606	39	5	
2	0	0	0	0	516	512	0	609	39	5	
3	0	0	0	0	511	513	0	605	38	5	
4	0	0	0	0	505	513	1	622	38	5	
5	0	0	0	0	516	511	0	629	38	5	
6	0	0	0	0	515	511	0	621	39	5	
7	0	0	0	0	511	512	0	615	38	5	
8	0	0	0	0	512	512	1	599	38	5	
9	0	0	0	0	515	510	0	577	38	5	
10	0	0	0	0	503	514	0	587	38	5	
11	0	0	0	0	512	513	0	621	39	5	
12	0	0	0	0	510	512	1	653	39	5	
13	0	0	0	0	507	513	0	680	39	5	
14	0	0	0	0	511	513	0	691	39	5	
15	0	0	0	0	508	514	0	678	39	5	
0	0	0	0	0	511	513	0	651	39	5	
1	0	0	0	0	504	511	0	619	39	5	
2	0	0	0	0	505	511	0	601	39	5	
3	0	0	0	0	508	512	0	612	39	5	
4	0	0	0	0	514	513	1	641	39	5	
5	0	0	0	0	511	511	0	676	39	5	
6	0	0	0	0	511	512	0	703	39	5	
7	0	0	0	0	516	513	0	722	39	5	
8	0	0	0	0	511	512	1	725	39	5	
9	0	0	0	0	509	513	0	707	39	5	
10	0	0	0	0	505	514	0	678	39	5	
11	0	0	0	0	517	515	0	651	39	5	
12	0	0	0	0	503	514	1	628	39	5	
13	0	0	0	0	507	512	0	618	39	5	
14	0	0	0	0	509	513	0	620	39	5	
15	0	0	0	0	514	514	0	622	39	5	
0	0	0	0	0	512	515	1	637	39	5	
1	0	0	0	0	514	515	0	671	39	5	
2	0	0	0	0	512	514	0	706	39	5	
3	0	0	0	0	505	513	0	731	39	5	
4	0	0	0	0	500	514	1	739	39	5	
5	0	0	0	0	511	512	0	727	39	5	
6	0	0	0	0	510	512	0	711	39	5	
7	0	0	0	0	511	513	0	685	39	5	
8	0	0	0	0	506	511	0	650	39	5	
9	0	0	0	0	508	513	0	614	39	5	
10	0	0	0	0	511	512	0	576	39	5	
11	0	0	0	0	512	512	0	543	39	5	
12	0	0	0	0	513	513	1	519	39	5	
13	0	0	0	0	508	513	0	483	39	5	
14	0	0	0	0	512	513	0	451	39	5	
15	0	0	0	0	510	514	0	452	39	5	
0	0	0	0	0	519	514	1	480	39	5	
1	0	0	0	0	512	513	0	520	39	5	
2	0	0	0	0	506	513	0	550	39	5	
3	0	0	0	0	510	513	0	580	38	5	
4	0	0	0	0	512	513	1	600	39	5	
5	0	0	0	0	505	512	0	620	39	5	
6	0	0	0	0	512	514	0	647	39	5	
7	0	0	0	0	508	514	0	657	38	5	
8	0	0	0	0	511	515	1	638	38	5	
9	0	0	0	0	505	513	0	609	39	5	
10	0	0	0	0	502	515	0	595	38	5	
11	0	0	0	0	509	513	0	577	38	5	
12	0	0	0	0	515	514	1	595	38	5	
13	0	0	0	0	511	514	0	634	38	5	
14	0	0	0	0	521	515	0	656	38	5	
15	0	0	0	0	507	515	0	648	39	5	
0	0	0	0	0	503	514	0	625	38	5	
1	0	0	0	0	510	513	0	575	39	5	
2	0	0	0	0	513	512	0	497	38	5	
3	0	0	0	0	504	512	0	441	38	5	
4	0	0	0	0	509	513	1	427	39	5	
5	0	0	0	0	511	514	0	439	39	5	
6	0	0	0	0	517	516	0	448	39	5	
7	0	0	0	0	511	516	0	467	39	5	
8	0	0	0	0	510	515	1	514	38	5	
9	0	0	0	0	513	513	0	566	38	5	
10	0	0	0	0	510	513	0	616	39	5	
11	0	0	0	0	512	514	0	643	38	5	
12	0	0	0	0	511	513	0	628	39	5	
13	0	0	0	0	510	515	0	582	39	5	
14	0	0	0	0	514	514	0	523	39	5	
15	0	0	0	0	505	515	0	470	39	5	
0	0	0	0	0	503	513	0	437	39	5	
1	0	0	0	0	505	511	0	417	39	5	
2	0	0	0	0	513	512	0	399	39	5	
3	0	0	0	0	507	514	0	394	39	5	
4	0	0	0	0	512	512	0	399	39	5	
5	0	0	0	0	511	514	0	420	38	5	
6	0	0	0	0	510	513	0	448	39	5	
7	0	0	0	0	506	513	0	457	39	5	
8	0	0	0	0	510	513	0	439	39	5	
9	0	0	0	0	516	512	0	418	39	5	
10	0	0	0	0	512	512	0	420	39	5	
11	0	0	0	0	516	515	0	447	38	5	
12	0	0	0	0	515	515	0	480	38	5	
13	0	0	0	0	510	515	0	499	38	5	
14	0	0	0	0	505	515	0	514	39	5	
15	0	0	0	0	507	514	0	527	38	5	
0	0	0	0	0	514	513	1	540	39	5	
1	0	0	0	0	508	512	0	541	38	5	
2	0	0	0	0	510	512	0	534	39	5	
3	0	0	0	0	507	512	0	515	39	5	
4	0	0	0	0	509	513	0	489	39	5	
5	0	0	0	0	507	513	0	476	39	5	
6	0	0	0	0	514	513	0	461	39	5	
7	0	0	0	0	511	512	0	437	39	5	
8	0	0	0	0	507	511	0	399	38	5	
9	0	0	0	0	509	511	0	345	39	5	
10	0	0	0	0	509	512	0	289	39	5	
11	0	0	0	0	512	511	0	255	39	5	
12	0	0	0	0	510	509	0	233	39	5	
13	0	0	0	0	509	511	0	237	39	5	
14	0	0	0	0	517	511	0	243	39	5	
15	0	0	0	0	508	512	0	243	39	5	
0	0	0	0	0	508	513	1	252	38	5	
1	0	0	0	0	505	514	0	271	39	5	
2	0	0	0	0	516	514	0	255	39	5	
3	0	0	0	0	519	512	0	243	39	5	
4	0	0	0	0	500	512	1	252	39	5	
5	0	0	0	0	507	511	0	252	39	5	
6	0	0	0	0	515	515	0	255	39	5	
7	0	0	0	0	503	514	0	247	39	5	
8	0	0	0	0	505	512	0	241	39	5	
9	0	0	0	0	515	514	0	254	39	5	
10	0	0	0	0	518	512	0	276	39	5	
11	0	0	0	0	505	514	0	291	39	5	
12	0	0	0	0	513	513	1	287	39	5	
13	0	0	0	0	512	514	0	291	39	5	
14	0	0	0	0	510	515	0	326	39	5	
15	0	0	0	0	509	515	0	378	39	5	
0	0	0	0	0	508	515	1	435	39	5	
1	0	0	0	0	516	513	0	481	39	5	
2	0	0	0	0	503	513	0	507	39	5	
3	0	0	0	0	515	512	0	514	39	5	
4	0	0	0	0	507	512	0	504	39	5	
5	0	0	0	0	509	513	0	483	39	5	
6	0	0	0	0	511	514	0	461	39	5	
7	0	0	0	0	512	514	0	449	39	5	
8	0	0	0	0	518	515	1	435	39	5	
9	0	0	0	0	510	513	0	423	39	5	
10	0	0	0	0	503	512	0	408	39	5	
11	0	0	0	0	513	513	0	393	39	5	
12	0	0	0	0	510	513	1	373	39	5	
13	0	0	0	0	513	512	0	355	39	5	
14	0	0	0	0	506	511	0	348	39	5	
15	0	0	0	0	503	512	0	351	39	5	
0	0	0	0	0	511	513	1	353	39	5	
1	0	0	0	0	508	513	0	356	39	5	
2	0	0	0	0	505	512	0	333	39	5	
3	0	0	0	0	508	512	0	268	39	5	
4	0	0	0	0	513	512	1	188	39	5	
5	0	0	0	0	510	512	0	129	39	5	
6	0	0	0	0	511	513	0	91	39	5	
7	0	0	0	0	508	512	0	81	39	5	
8	0	0	0	0	518	515	1	71	39	5	
9	0	0	0	0	513	515	0	62	39	5	
10	0	0	0	0	510	516	0	62	39	5	
11	0	0	0	0	506	514	0	57	39	5	
12	0	0	0	0	514	513	1	64	39	5	
13	0	0	0	0	513	510	0	97	39	5	
14	0	0	0	0	512	511	0	139	39	5	
15	0	0	0	0	512	511	0	170	39	5	
0	0	0	0	0	508	511	1	187	39	5	
1	0	0	0	0	511	511	0	199	39	5	
2	0	0	0	0	514	511	0	212	39	5	
3	0	0	0	0	510	513	0	227	39	5	
4	0	0	0	0	510	512	1	238	39	5	
5	0	0	0	0	505	511	0	248	39	5	
6	0	0	0	0	499	512	0	249	39	5	
7	0	0	0	0	512	513	0	234	39	5	
8	0	0	0	0	508	515	1	204	39	5	
9	0	0	0	0	513	513	0	189	39	5	
10	0	0	0	0	509	514	0	180	39	5	
11	0	0	0	0	513	515	0	169	39	5	
12	0	0	0	0	506	515	0	161	39	5	
13	0	0	0	0	516	513	0	151	39	5	
14	0	0	0	0	511	514	0	143	39	5	
15	0	0	0	0	512	514	0	163	39	5	
0	0	0	0	0	516	513	1	194	39	5	
1	0	0	0	0	509	511	0	216	39	5	
2	0	0	0	0	512	512	0	216	39	5	
3	0	0	0	0	512	513	0	215	39	5	
4	0	0	0	0	513	513	1	225	39	5	
5	0	0	0	0	508	510	0	249	39	5	
6	0	0	0	0	506	511	0	273	39	5	
7	0	0	0	0	511	512	0	287	39	5	
8	0	0	0	0	510	513	1	289	39	5	
9	0	0	0	0	504	511	0	287	38	5	
10	0	0	0	0	510	512	0	285	39	5	
11	0	0	0	0	515	515	0	289	39	5	
12	0	0	0	0	512	514	0	304	39	5	
13	0	0	0	0	505	514	0	313	39	5	
14	0	0	0	0	512	514	0	307	39	5	
15	0	0	0	0	504	516	0	291	39	5	
0	0	0	0	0	512	517	1	280	38	5	
1	0	0	0	0	504	515	0	267	38	5	
2	0	0	0	0	509	515	0	260	38	5	
3	0	0	0	0	508	517	0	255	38	5	
4	0	0	0	0	510	517	0	252	38	5	
5	0	0	0	0	508	516	0	262	38	5	
6	0	0	0	0	507	514	0	269	38	5	
7	0	0	0	0	515	513	0	262	38	5	
8	0	0	0	0	511	513	1	262	38	5	
9	0	0	0	0	512	511	0	274	38	5	
10	0	0	0	0	513	512	0	289	38	5	
11	0	0	0	0	515	513	0	301	38	5	
12	0	0	0	0	511	515	1	304	38	5	
13	0	0	0	0	509	513	0	302	38	5	
14	0	0	0	0	500	513	0	301	38	5	
15	0	0	0	0	511	514	0	311	38	5	
0	0	0	0	0	505	511	0	316	38	5	
1	0	0	0	0	514	510	0	301	38	5	
2	0	0	0	0	514	509	0	271	38	5	
3	0	0	0	0	513	511	0	254	38	5	
4	0	0	0	0	505	510	0	249	38	5	
5	0	0	0	0	513	512	0	248	38	5	
6	0	0	0	0	506	511	0	235	38	5	
7	0	0	0	0	508	512	0	219	38	5	
8	0	0	0	0	511	511	0	207	38	5	
9	0	0	0	0	511	511	0	224	38	5	
10	0	0	0	0	508	511	0	248	38	5	
11	0	0	0	0	509	511	0	275	38	5	
12	0	0	0	0	506	510	0	291	38	5	
13	0	0	0	0	508	512	0	291	38	5	
14	0	0	0	0	515	514	0	291	38	5	
15	0	0	0	0	506	515	0	294	38	5	
0	0	0	0	0	509	516	1	280	38	5	
1	0	0	0	0	508	515	0	250	38	5	
2	0	0	0	0	515	518	0	222	38	5	
3	0	0	0	0	508	518	0	192	38	5	
4	0	0	0	0	515	516	0	161	38	5	
5	0	0	0	0	506	515	0	133	38	5	
6	0	0	0	0	511	515	0	105	38	5	
7	0	0	0	0	512	515	0	105	38	5	
8	0	0	0	0	507	516	1	126	38	5	
9	0	0	0	0	503	512	0	171	38	5	
10	0	0	0	0	505	512	0	203	38	5	
11	0	0	0	0	514	513	0	221	38	5	
12	0	0	0	0	508	514	1	216	39	5	
13	0	0	0	0	510	511	0	185	38	5	
14	0	0	0	0	512	511	0	148	39	5	
15	0	0	0	0	509	512	0	119	39	5	
0	0	0	0	0	515	511	0	105	39	5	
1	0	0	0	0	509	512	0	105	39	5	
2	0	0	0	0	508	512	0	114	39	5	
3	0	0	0	0	513	512	0	129	39	5	
4	0	0	0	0	506	511	0	146	39	5	
5	0	0	0	0	508	511	0	166	39	5	
6	0	0	0	0	513	513	0	181	39	5	
7	0	0	0	0	515	514	0	189	39	5	
8	0	0	0	0	502	516	1	189	39	5	
9	0	0	0	0	504	515	0	188	39	5	
10	0	0	0	0	510	513	0	173	39	5	
11	0	0	0	0	517	514	0	167	39	5	
12	0	0	0	0	512	512	0	160	39	5	
13	0	0	0	0	511	513	0	163	39	5	
14	0	0	0	0	506	513	0	176	39	5	
15	0	0	0	0	514	513	0	199	39	5	
0	0	0	0	0	509	511	0	221	39	5	
1	0	0	0	0	509	511	0	240	39	5	
2	0	0	0	0	511	512	0	268	39	5	
3	0	0	0	0	517	513	0	301	39	5	
4	0	0	0	0	511	513	1	331	39	5	
5	0	0	0	0	504	513	0	350	39	5	
6	0	0	0	0	509	513	0	355	39	5	
7	0	0	0	0	511	513	0	354	39	5	
8	0	0	0	0	511	512	0	352	39	5	
9	0	0	0	0	504	513	0	345	39	5	
10	0	0	0	0	512	514	0	317	39	5	
11	0	0	0	0	516	514	0	291	39	5	
12	0	0	0	0	508	514	1	264	39	5	
13	0	0	0	0	513	513	0	243	39	5	
14	0	0	0	0	511	514	0	231	39	5	
15	0	0	0	0	506	514	0	231	39	5	
0	0	0	0	0	512	512	1	233	38	5	
1	0	0	0	0	513	512	0	232	39	5	
2	0	0	0	0	507	512	0	239	39	5	
3	0	0	0	0	514	512	0	260	39	5	
4	0	0	0	0	513	512	1	282	39	5	
5	0	0	0	0	513	511	0	292	39	5	
6	0	0	0	0	512	511	0	295	39	5	
7	0	0	0	0	506	511	0	279	39	5	
8	0	0	0	0	507	511	1	251	39	5	
9	0	0	0	0	508	511	0	217	39	5	
10	0	0	0	0	508	512	0	190	39	5	
11	0	0	0	0	507	511	0	166	38	5	
12	0	0	0	0	514	513	1	152	38	5	
13	0	0	0	0	506	513	0	149	38	5	
14	0	0	0	0	510	510	0	154	38	5	
15	0	0	0	0	504	510	0	169	39	5	
0	0	0	0	0	510	510	1	185	39	5	
1	0	0	0	0	504	509	0	210	39	5	
2	0	0	0	0	513	510	0	236	38	5	
3	0	0	0	0	506	511	0	259	38	5	
4	0	0	0	0	510	511	1	262	38	5	
5	0	0	0	0	513	511	0	255	38	5	
6	0	0	0	0	515	510	0	244	39	5	
7	0	0	0	0	504	510	0	230	38	5	
8	0	0	0	0	511	511	0	227	38	5	
9	0	0	0	0	516	511	0	231	39	5	
10	0	0	0	0	516	511	0	238	39	5	
11	0	0	0	0	512	512	0	259	39	5	
12	0	0	0	0	509	512	1	269	39	5	
13	0	0	0	0	514	509	0	295	39	5	
14	0	0	0	0	505	509	0	329	38	5	
15	0	0	0	0	510	511	0	361	38	5	
0	0	0	0	0	512	511	0	375	38	5	
1	0	0	0	0	510	511	0	367	39	5	
2	0	0	0	0	510	511	0	336	39	5	
3	0	0	0	0	507	511	0	290	38	5	
4	0	0	0	0	505	512	0	232	39	5	
5	0	0	0	0	506	509	0	170	38	5	
6	0	0	0	0	509	508	0	112	39	5	
7	0	0	0	0	514	510	0	65	39	5	
8	0	0	0	0	509	511	1	33	39	5	
9	0	0	0	0	517	511	0	11	39	5	
10	0	0	0	0	508	511	0	0	39	5	
11	0	0	0	0	508	512	0	0	39	5	
12	0	0	0	0	511	512	0	0	39	5	
13	0	0	0	0	510	511	0	0	39	5	
14	0	0	0	0	511	512	0	0	39	5	
15	0	0	0	0	509	511	0	0	39	5	
0	0	0	0	0	508	511	1	0	39	5	
1	0	0	0	0	512	511	0	0	39	5	
2	0	0	0	0	514	511	0	0	39	5	
3	0	0	0	0	512	511	0	0	39	5	
4	0	0	0	0	509	510	0	0	39	5	
5	0	0	0	0	503	510	0	0	39	5	
6	0	0	0	0	508	509	0	0	39	5	
7	0	0	0	0	506	511	0	0	39	5	
8	0	0	0	0	510	511	1	0	39	5	
9	0	0	0	0	505	510	0	0	39	5	
10	0	0	0	0	513	511	0	0	39	5	
11	0	0	0	0	508	513	0	0	39	5	
12	0	0	0	0	513	512	0	0	39	5	
13	0	0	0	0	509	511	0	0	39	5	
14	0	0	0	0	514	511	0	0	39	5	
15	0	0	0	0	508	511	0	0	39	5	
0	0	0	0	0	511	512	0	0	39	5	
1	0	0	0	0	511	510	0	0	39	5	
2	0	0	0	0	502	509	0	0	39	5	
3	0	0	0	0	511	512	0	0	39	5	
4	0	0	0	0	508	512	0	0	39	5	
5	0	0	0	0	507	510	0	0	39	5	
6	0	0	0	0	506	511	0	0	39	5	
7	0	0	0	0	512	512	0	0	39	5	
8	0	0	0	0	508	511	0	0	38	5	
9	0	0	0	0	508	512	0	0	39	5	
10	0	0	0	0	515	510	0	0	39	5	
11	0	0	0	0	513	510	0	0	39	5	
12	0	0	0	0	513	511	1	0	39	5	
13	0	0	0	0	511	511	0	0	39	5	
14	0	0	0	0	511	510	0	0	39	5	
15	0	0	0	0	509	510	0	0	39	5	
0	0	0	0	0	507	510	0	0	39	5	
1	0	0	0	0	507	511	0	0	39	5	
2	0	0	0	0	505	511	0	0	39	5	
3	0	0	0	0	505	511	0	0	39	5	
4	0	0	0	0	512	511	0	0	39	5	
5	0	0	0	0	518	511	0	0	39	5	
6	0	0	0	0	510	510	0	0	39	5	
7	0	0	0	0	509	509	0	0	39	5	
8	0	0	0	0	509	510	1	0	39	5	
9	0	0	0	0	512	510	0	0	39	5	
10	0	0	0	0	511	511	0	0	39	5	
11	0	0	0	0	508	514	0	0	39	5	
12	0	0	0	0	510	512	1	0	39	5	
13	0	0	0	0	505	512	0	0	39	5	
14	0	0	0	0	509	510	0	0	39	5	
15	0	0	0	0	512	509	0	0	39	5	
0	0	0	0	0	509	510	1	0	39	5	
1	0	0	0	0	515	508	0	0	39	5	
2	0	0	0	0	508	508	0	0	39	5	
3	0	0	0	0	510	508	0	0	39	5	
4	0	0	0	0	504	508	0	0	39	5	
5	0	0	0	0	509	508	0	0	39	5	
6	0	0	0	0	511	511	0	0	39	5	
7	0	0	0	0	508	511	0	0	39	5	
8	0	0	0	0	513	511	0	0	39	5	
9	0	0	0	0	516	510	0	0	39	5	
10	0	0	0	0	509	510	0	0	39	5	
11	0	0	0	0	510	512	0	0	39	5	
12	0	0	0	0	512	511	0	0	39	5	
13	0	0	0	0	512	511	0	0	39	5	
14	0	0	0	0	518	512	0	0	39	5	
15	0	0	0	0	504	510	0	0	39	5	
0	0	0	0	0	506	510	0	0	39	5	
1	0	0	0	0	509	509	0	0	39	5	
2	0	0	0	0	517	508	0	0	39	5	
3	0	0	0	0	507	508	0	0	39	5	
4	0	0	0	0	509	507	0	0	39	5	
5	0	0	0	0	503	508	0	0	39	5	
6	0	0	0	0	516	509	0	0	39	5	
7	0	0	0	0	505	509	0	0	39	5	
8	0	0	0	0	517	509	1	0	39	5	
9	0	0	0	0	508	508	0	0	39	5	
10	0	0	0	0	518	507	0	0	39	5	
11	0	0	0	0	509	508	0	0	39	5	
12	0	0	0	0	508	509	0	0	39	5	
13	0	0	0	0	514	508	0	0	39	5	
14	0	0	0	0	505	511	0	0	39	5	
15	0	0	0	0	513	511	0	0	39	5	
0	0	0	0	0	512	512	1	0	39	5	
1	0	0	0	0	511	512	0	0	39	5	
2	0	0	0	0	515	513	0	0	39	5	
3	0	0	0	0	500	512	0	0	38	5	
4	0	0	0	0	508	512	1	0	39	5	
5	0	0	0	0	512	509	0	0	39	5	
6	0	0	0	0	507	509	0	0	39	5	
7	0	0	0	0	509	511	0	0	39	5	
8	0	0	0	0	508	512	0	0	39	5	
9	0	0	0	0	508	511	0	0	39	5	
10	0	0	0	0	510	511	0	0	39	5	
11	0	0	0	0	515	510	0	0	38	5	
12	0	0	0	0	514	511	0	0	38	5	
13	0	0	0	0	508	512	0	0	39	5	
14	0	0	0	0	514	511	0	0	38	5	
15	0	0	0	0	508	511	0	0	38	5	
0	0	0	0	0	512	508	0	0	39	5	
1	0	0	0	0	515	510	0	0	38	5	
2	0	0	0	0	509	510	0	0	38	5	
3	0	0	0	0	508	512	0	0	38	5	
4	0	0	0	0	512	513	0	0	38	5	
5	0	0	0	0	507	512	0	0	38	5	
6	0	0	0	0	512	512	0	0	38	5	
7	0	0	0	0	499	513	0	0	38	5	
8	0	0	0	0	510	510	1	0	38	5	
9	0	0	0	0	509	511	0	0	38	5	
10	0	0	0	0	511	511	0	0	38	5	
11	0	0	0	0	509	513	0	41	38	5	
12	0	0	0	0	510	511	0	70	38	5	
13	0	0	0	0	511	510	0	91	38	5	
14	0	0	0	0	511	511	0	102	38	5	
15	0	0	0	0	513	511	0	112	38	5	
0	0	0	0	0	505	511	1	109	38	5	
1	0	0	0	0	504	512	0	108	38	5	
2	0	0	0	0	507	512	0	109	38	5	
3	0	0	0	0	513	512	0	95	38	5	
4	0	0	0	0	514	510	0	66	38	5	
5	0	0	0	0	512	508	0	35	38	5	
6	0	0	0	0	511	507	0	15	38	5	
7	0	0	0	0	505	511	0	7	38	5	
8	0	0	0	0	511	510	0	19	38	5	
9	0	0	0	0	512	510	0	54	38	5	
10	0	0	0	0	507	509	0	98	38	5	
11	0	0	0	0	512	509	0	147	38	5	
12	0	0	0	0	510	508	0	195	38	5	
13	0	0	0	0	508	511	0	234	38	5	
14	0	0	0	0	512	512	0	281	38	5	
15	0	0	0	0	505	513	0	331	38	5	
0	0	0	0	0	512	511	0	374	38	5	
1	0	0	0	0	504	509	0	391	38	5	
2	0	0	0	0	507	512	0	387	38	5	
3	0	0	0	0	511	512	0	377	38	5	
4	0	0	0	0	513	512	0	385	38	5	
5	0	0	0	0	505	512	0	393	38	5	
6	0	0	0	0	508	512	0	401	38	5	
7	0	0	0	0	517	511	0	408	38	5	
8	0	0	0	0	508	511	1	414	38	5	
9	0	0	0	0	506	509	0	425	38	5	
10	0	0	0	0	512	511	0	436	38	5	
11	0	0	0	0	513	511	0	443	38	5	
12	0	0	0	0	509	510	0	440	38	5	
13	0	0	0	0	519	508	0	437	38	5	
14	0	0	0	0	508	509	0	437	38	5	
15	0	0	0	0	509	512	0	430	38	5	
0	0	0	0	0	515	511	0	411	38	5	
1	0	0	0	0	507	512	0	384	38	5	
2	0	0	0	0	507	512	0	365	38	5	
3	0	0	0	0	514	512	0	350	38	5	
4	0	0	0	0	512	511	0	332	38	5	
5	0	0	0	0	508	511	0	327	38	5	
6	0	0	0	0	507	512	0	340	38	5	
7	0	0	0	0	510	514	0	367	38	5	
8	0	0	0	0	507	515	1	384	38	5	
9	0	0	0	0	515	515	0	387	38	5	
10	0	0	0	0	510	514	0	386	38	5	
11	0	0	0	0	507	516	0	396	38	5	
12	0	0	0	0	504	514	0	413	38	5	
13	0	0	0	0	513	512	0	430	38	5	
14	0	0	0	0	508	514	0	437	38	5	
15	0	0	0	0	507	515	0	450	38	5	
0	0	0	0	0	510	516	1	463	38	5	
1	0	0	0	0	506	515	0	482	38	5	
2	0	0	0	0	513	515	0	490	38	5	
3	0	0	0	0	505	515	0	487	38	5	
4	0	0	0	0	515	512	0	491	38	5	
5	0	0	0	0	512	511	0	504	38	5	
6	0	0	0	0	511	510	0	504	38	5	
7	0	0	0	0	512	512	0	505	38	5	
8	0	0	0	0	508	514	1	522	38	5	
9	0	0	0	0	512	513	0	539	38	5	
10	0	0	0	0	505	514	0	568	38	5	
11	0	0	0	0	514	515	0	607	38	5	
12	0	0	0	0	507	515	1	621	38	5	
13	0	0	0	0	504	515	0	615	38	5	
14	0	0	0	0	516	515	0	583	38	5	
15	0	0	0	0	515	515	0	544	38	5	
0	0	0	0	0	507	515	0	517	38	5	
1	0	0	0	0	508	515	0	502	38	5	
2	0	0	0	0	504	514	0	494	38	5	
3	0	0	0	0	513	514	0	464	38	5	
4	0	0	0	0	509	513	1	455	38	5	
5	0	0	0	0	510	514	0	458	38	5	
6	0	0	0	0	510	513	0	467	38	5	
7	0	0	0	0	509	516	0	483	38	5	
8	0	0	0	0	516	515	1	513	38	5	
9	0	0	0	0	510	515	0	535	38	5	
10	0	0	0	0	509	514	0	525	38	5	
11	0	0	0	0	507	512	0	502	38	5	
12	0	0	0	0	510	512	1	469	38	5	
13	0	0	0	0	511	512	0	449	38	5	
14	0	0	0	0	520	511	0	433	38	5	
15	0	0	0	0	504	512	0	421	38	5	
0	0	0	0	0	513	510	0	406	38	5	
1	0	0	0	0	507	509	0	407	38	5	
2	0	0	0	0	512	509	0	414	38	5	
3	0	0	0	0	509	510	0	415	38	5	
4	0	0	0	0	507	510	0	411	38	5	
5	0	0	0	0	507	509	0	412	38	5	
6	0	0	0	0	505	512	0	415	38	5	
7	0	0	0	0	513	511	0	418	38	5	
8	0	0	0	0	514	510	0	419	38	5	
9	0	0	0	0	512	511	0	420	38	5	
10	0	0	0	0	509	512	0	435	38	5	
11	0	0	0	0	512	511	0	454	38	5	
12	0	0	0	0	497	511	0	471	38	5	
13	0	0	0	0	509	512	0	488	38	5	
14	0	0	0	0	516	513	0	514	38	5	
15	0	0	0	0	514	513	0	542	38	5	
0	0	0	0	0	503	512	0	574	38	5	
1	0	0	0	0	508	512	0	603	38	5	
2	0	0	0	0	508	512	0	638	38	5	
3	0	0	0	0	509	511	0	680	38	5	
4	0	0	0	0	506	512	1	704	38	5	
5	0	0	0	0	511	513	0	705	38	5	
6	0	0	0	0	511	515	0	699	38	5	
7	0	0	0	0	509	515	0	710	38	5	
8	0	0	0	0	513	515	0	731	38	5	
9	0	0	0	0	516	513	0	734	38	5	
10	0	0	0	0	508	514	0	715	38	5	
11	0	0	0	0	510	515	0	690	38	5	
12	0	0	0	0	511	514	0	667	38	5	
13	0	0	0	0	510	515	0	661	38	5	
14	0	0	0	0	505	514	0	658	38	5	
15	0	0	0	0	507	514	0	646	38	5	
0	0	0	0	0	514	513	0	638	38	5	
1	0	0	0	0	514	513	0	632	38	5	
2	0	0	0	0	503	513	0	629	38	5	
3	0	0	0	0	507	513	0	614	38	5	
4	0	0	0	0	506	514	0	592	38	5	
5	0	0	0	0	501	513	0	573	38	5	
6	0	0	0	0	511	511	0	563	38	5	
7	0	0	0	0	518	511	0	561	38	5	
8	0	0	0	0	513	513	1	554	38	5	
9	0	0	0	0	512	512	0	536	38	5	
10	0	0	0	0	508	511	0	507	39	5	
11	0	0	0	0	512	512	0	478	39	5	
12	0	0	0	0	515	511	0	448	39	5	
13	0	0	0	0	514	510	0	430	39	5	
14	0	0	0	0	508	511	0	436	39	5	
15	0	0	0	0	512	512	0	439	39	5	
0	0	0	0	0	512	511	0	470	39	5	
1	0	0	0	0	508	511	0	511	39	5	
2	0	0	0	0	516	514	0	551	39	5	
3	0	0	0	0	508	514	0	573	39	5	
4	0	0	0	0	510	513	1	575	39	5	
5	0	0	0	0	508	510	0	566	39	5	
6	0	0	0	0	505	511	0	535	39	5	
7	0	0	0	0	511	513	0	504	39	5	
8	0	0	0	0	513	512	1	494	39	5	
9	0	0	0	0	506	511	0	504	39	5	
10	0	0	0	0	507	514	0	525	39	5	
11	0	0	0	0	512	513	0	552	39	5	
12	0	0	0	0	512	513	1	601	39	5	
13	0	0	0	0	510	511	0	650	39	5	
14	0	0	0	0	506	511	0	676	39	5	
15	0	0	0	0	508	512	0	675	39	5	
0	0	0	0	0	507	512	1	656	39	5	
1	0	0	0	0	512	511	0	635	39	5	
2	0	0	0	0	519	511	0	619	39	5	
3	0	0	0	0	509	513	0	609	39	5	
4	0	0	0	0	503	512	0	595	39	5	
5	0	0	0	0	506	511	0	582	39	5	
6	0	0	0	0	515	510	0	567	39	5	
7	0	0	0	0	512	512	0	560	39	5	
8	0	0	0	0	508	512	1	559	39	5	
9	0	0	0	0	515	511	0	564	39	5	
10	0	0	0	0	512	513	0	569	39	5	
11	0	0	0	0	511	513	0	568	39	5	
12	0	0	0	0	508	512	0	564	39	5	
13	0	0	0	0	507	511	0	550	39	5	
14	0	0	0	0	506	511	0	531	39	5	
15	0	0	0	0	511	511	0	513	39	5	
0	0	0	0	0	504	513	1	496	39	5	
1	0	0	0	0	505	512	0	496	39	5	
2	0	0	0	0	512	512	0	483	39	5	
3	0	0	0	0	516	512	0	525	39	5	
4	0	0	0	0	507	512	0	587	39	5	
5	0	0	0	0	508	512	0	621	39	5	
6	0	0	0	0	512	513	0	643	39	5	
7	0	0	0	0	511	513	0	666	39	5	
8	0	0	0	0	508	512	1	679	39	5	
9	0	0	0	0	504	512	0	686	39	5	
10	0	0	0	0	508	511	0	678	39	5	
11	0	0	0	0	509	511	0	662	39	5	
12	0	0	0	0	516	511	1	643	39	5	
13	0	0	0	0	508	511	0	645	39	5	
14	0	0	0	0	510	511	0	625	39	5	
15	0	0	0	0	511	512	0	616	39	5	
0	0	0	0	0	508	511	1	599	39	5	
1	0	0	0	0	521	510	0	588	39	5	
2	0	0	0	0	512	512	0	582	39	5	
3	0	0	0	0	513	513	0	584	39	5	
4	0	0	0	0	516	513	1	597	39	5	
5	0	0	0	0	505	512	0	606	39	5	
6	0	0	0	0	509	513	0	591	39	5	
7	0	0	0	0	502	513	0	557	39	5	
8	0	0	0	0	504	511	0	532	39	5	
9	0	0	0	0	516	511	0	493	39	5	
10	0	0	0	0	514	512	0	489	39	5	
11	0	0	0	0	507	512	0	500	39	5	
12	0	0	0	0	512	510	1	512	39	5	
13	0	0	0	0	513	510	0	516	39	5	
14	0	0	0	0	510	511	0	506	39	5	
15	0	0	0	0	512	510	0	482	39	5	
0	0	0	0	0	509	508	0	459	39	5	
1	0	0	0	0	507	507	0	458	39	5	
2	0	0	0	0	508	509	0	467	39	5	
3	0	0	0	0	512	512	0	490	39	5	
4	0	0	0	0	509	513	1	526	39	5	
5	0	0	0	0	510	512	0	576	39	5	
6	0	0	0	0	512	511	0	614	39	5	
7	0	0	0	0	508	512	0	641	39	5	
8	0	0	0	0	504	513	1	651	39	5	
9	0	0	0	0	511	514	0	648	39	5	
10	0	0	0	0	513	514	0	633	39	5	
11	0	0	0	0	512	515	0	603	39	5	
12	0	0	0	0	513	514	0	570	39	5	
13	0	0	0	0	507	514	0	548	39	5	
14	0	0	0	0	511	513	0	539	39	5	
15	0	0	0	0	508	514	0	540	39	5	
0	0	0	0	0	505	515	1	539	39	5	
1	0	0	0	0	510	515	0	540	39	5	
2	0	0	0	0	516	516	0	543	39	5	
3	0	0	0	0	502	517	0	551	39	5	
4	0	0	0	0	511	515	0	567	39	5	
5	0	0	0	0	509	513	0	593	39	5	
6	0	0	0	0	511	513	0	635	39	5	
7	0	0	0	0	513	514	0	685	39	5	
8	0	0	0	0	511	515	1	723	39	5	
9	0	0	0	0	507	514	0	740	39	5	
10	0	0	0	0	509	513	0	749	39	5	
11	0	0	0	0	515	514	0	777	39	5	
12	0	0	0	0	505	514	1	814	39	5	
13	0	0	0	0	514	513	0	863	39	5	
14	0	0	0	0	512	513	0	900	39	5	
15	0	0	0	0	506	512	0	945	39	5	
0	0	0	0	0	515	510	0	998	39	5	
1	0	0	0	0	515	511	0	1018	39	5	
2	0	0	0	0	509	511	0	1018	39	5	
3	0	0	0	0	504	512	0	1017	39	5	
4	0	0	0	0	504	512	1	1019	39	5	
5	0	0	0	0	511	511	0	1018	39	5	
6	0	0	0	0	507	512	0	1018	39	5	
7	0	0	0	0	512	513	0	1018	39	5	
8	0	0	0	0	511	512	0	1018	39	5	
9	0	0	0	0	515	511	0	1018	39	5	
10	0	0	0	0	512	511	0	1018	39	5	
11	0	0	0	0	509	512	0	1018	39	5	
12	0	0	0	0	507	514	1	1019	39	5	
13	0	0	0	0	513	511	0	1018	39	5	
14	0	0	0	0	513	511	0	1018	39	5	
15	0	0	0	0	511	514	0	1018	39	5	
0	0	0	0	0	515	512	1	1018	39	5	
1	0	0	0	0	518	513	0	1018	39	5	
2	0	0	0	0	510	513	0	1018	39	5	
3	0	0	0	0	508	515	0	1018	39	5	
4	0	0	0	0	507	515	1	1019	39	5	
5	0	0	0	0	508	513	0	1018	39	5	
6	0	0	0	0	513	515	0	1018	39	5	
7	0	0	0	0	513	515	0	1018	39	5	
8	0	0	0	0	509	515	1	1019	39	5	
9	0	0	0	0	512	516	0	1018	39	5	
10	0	0	0	0	508	515	0	1018	39	5	
11	0	0	0	0	510	515	0	1018	39	5	
12	0	0	0	0	508	514	0	1019	39	5	
13	0	0	0	0	502	513	0	1018	39	5	
14	0	0	0	0	508	513	0	1018	39	5	
15	0	0	0	0	513	514	0	1018	39	5	
0	0	0	0	0	512	513	1	1019	39	5	
1	0	0	0	0	505	512	0	1018	39	5	
2	0	0	0	0	506	513	0	1018	39	5	
3	0	0	0	0	513	515	0	1018	39	5	
4	0	0	0	0	509	515	1	1018	39	5	
5	0	0	0	0	508	516	0	1018	39	5	
6	0	0	0	0	510	515	0	1018	39	5	
7	0	0	0	0	518	515	0	1018	39	5	
8	0	0	0	0	521	514	1	1019	39	5	
9	0	0	0	0	509	512	0	1018	39	5	
10	0	0	0	0	510	515	0	1018	39	5	
11	0	0	0	0	504	513	0	1018	39	5	
12	0	0	0	0	505	512	1	1018	39	5	
13	0	0	0	0	513	511	0	1018	39	5	
14	0	0	0	0	515	512	0	1018	39	5	
15	0	0	0	0	509	513	0	1018	39	5	
0	0	0	0	0	512	513	1	1019	39	5	
1	0	0	0	0	507	513	0	1018	39	5	
2	0	0	0	0	510	511	0	1018	39	5	
3	0	0	0	0	504	513	0	1018	39	5	
4	0	0	0	0	506	512	1	1019	39	5	
5	0	0	0	0	507	511	0	1018	39	5	
6	0	0	0	0	512	510	0	1018	39	5	
7	0	0	0	0	519	511	0	1018	39	5	
8	0	0	0	0	512	509	1	1019	39	5	
9	0	0	0	0	504	511	0	1018	39	5	
10	0	0	0	0	504	511	0	1018	39	5	
11	0	0	0	0	514	513	0	1018	39	5	
12	0	0	0	0	514	514	1	1019	39	5	
13	0	0	0	0	508	514	0	1018	39	5	
14	0	0	0	0	511	513	0	1018	39	5	
15	0	0	0	0	517	514	0	1018	39	5	
0	0	0	0	0	510	515	1	1019	39	5	
1	0	0	0	0	511	514	0	1018	39	5	
2	0	0	0	0	506	513	0	1018	39	5	
3	0	0	0	0	512	513	0	1018	39	5	
4	0	0	0	0	508	513	1	1019	39	5	
5	0	0	0	0	512	513	0	1018	39	5	
6	0	0	0	0	508	515	0	1018	39	5	
7	0	0	0	0	513	518	0	1018	39	5	
8	0	0	0	0	508	519	1	1019	39	5	
9	0	0	0	0	507	516	0	1018	39	5	
10	0	0	0	0	518	514	0	1018	39	5	
11	0	0	0	0	510	514	0	1018	39	5	
12	0	0	0	0	513	514	1	1019	39	5	
13	0	0	0	0	513	513	0	1018	39	5	
14	0	0	0	0	507	513	0	1018	39	5	
15	0	0	0	0	504	512	0	1018	39	5	
0	0	0	0	0	515	515	1	1019	39	5	
1	0	0	0	0	508	514	0	1018	39	5	
2	0	0	0	0	507	513	0	1018	39	5	
3	0	0	0	0	513	515	0	1018	39	5	
4	0	0	0	0	506	513	1	1019	39	5	
5	0	0	0	0	506	512	0	1018	39	5	
6	0	0	0	0	515	511	0	1018	39	5	
7	0	0	0	0	516	514	0	1018	39	5	
8	0	0	0	0	515	515	1	1019	39	5	
9	0	0	0	0	513	514	0	1018	39	5	
10	0	0	0	0	518	514	0	1018	39	5	
11	0	0	0	0	513	514	0	1018	39	5	
12	0	0	0	0	504	513	1	1019	39	5	
13	0	0	0	0	509	512	0	1018	39	5	
14	0	0	0	0	511	512	0	1018	39	5	
15	0	0	0	0	500	513	0	1018	39	5	
0	0	0	0	0	511	513	1	1019	39	5	
1	0	0	0	0	509	512	0	1018	39	5	
2	0	0	0	0	512	511	0	1018	39	5	
3	0	0	0	0	506	512	0	1018	39	5	
4	0	0	0	0	512	511	1	1018	39	5	
5	0	0	0	0	514	512	0	1018	39	5	
6	0	0	0	0	512	512	0	1018	39	5	
7	0	0	0	0	506	513	0	1018	39	5	
8	0	0	0	0	511	512	1	1019	38	5	
9	0	0	0	0	518	512	0	1018	39	5	
10	0	0	0	0	512	512	0	1018	39	5	
11	0	0	0	0	505	513	0	1018	39	5	
12	0	0	0	0	509	513	1	1019	39	5	
13	0	0	0	0	506	512	0	1018	39	5	
14	0	0	0	0	508	512	0	1018	39	5	
15	0	0	0	0	512	511	0	1018	39	5	
0	0	0	0	0	515	510	1	1017	39	5	
1	0	0	0	0	513	510	0	1018	39	5	
2	0	0	0	0	511	511	0	1018	39	5	
3	0	0	0	0	516	512	0	1017	39	5	
4	0	0	0	0	508	513	1	1019	39	5	
5	0	0	0	0	506	511	0	1018	39	5	
6	0	0	0	0	509	511	0	1018	39	5	
7	0	0	0	0	503	511	0	1018	39	5	
8	0	0	0	0	508	508	1	1018	39	5	
9	0	0	0	0	516	507	0	1018	39	5	
10	0	0	0	0	511	508	0	1018	39	5	
11	0	0	0	0	504	510	0	1017	39	5	
12	0	0	0	0	515	511	1	1019	39	5	
13	0	0	0	0	511	510	0	1018	39	5	
14	0	0	0	0	510	509	0	962	39	5	
15	0	0	0	0	510	511	0	912	39	5	
0	0	0	0	0	511	510	1	870	38	5	
1	0	0	0	0	508	511	0	846	39	5	
2	0	0	0	0	502	509	0	851	39	5	
3	0	0	0	0	510	510	0	869	39	5	
4	0	0	0	0	512	511	1	888	39	5	
5	0	0	0	0	508	512	0	896	39	5	
6	0	0	0	0	505	511	0	903	39	5	
7	0	0	0	0	512	511	0	909	39	5	
8	0	0	0	0	518	511	1	908	38	5	
9	0	0	0	0	509	511	0	914	38	5	
10	0	0	0	0	513	512	0	920	39	5	
11	0	0	0	0	503	511	0	919	38	5	
12	0	0	0	0	503	514	1	898	38	5	
13	0	0	0	0	513	514	0	868	38	5	
14	0	0	0	0	511	514	0	833	39	5	
15	0	0	0	0	519	516	0	809	39	5	
0	0	0	0	0	511	513	1	794	39	5	
1	0	0	0	0	510	512	0	783	38	5	
2	0	0	0	0	516	511	0	739	38	5	
3	0	0	0	0	508	512	0	729	38	5	
4	0	0	0	0	516	513	1	749	38	5	
5	0	0	0	0	504	512	0	769	38	5	
6	0	0	0	0	510	513	0	780	38	5	
7	0	0	0	0	509	513	0	771	38	5	
8	0	0	0	0	512	514	1	749	38	5	
9	0	0	0	0	508	512	0	740	39	5	
10	0	0	0	0	512	511	0	686	39	5	
11	0	0	0	0	512	511	0	620	38	5	
12	0	0	0	0	505	511	1	556	39	5	
13	0	0	0	0	514	511	0	528	39	5	
14	0	0	0	0	511	510	0	519	39	5	
15	0	0	0	0	511	511	0	519	39	5	
0	0	0	0	0	515	510	0	530	39	5	
1	0	0	0	0	510	510	0	548	39	5	
2	0	0	0	0	510	509	0	561	39	5	
3	0	0	0	0	510	508	0	567	39	5	
4	0	0	0	0	507	507	1	568	39	5	
5	0	0	0	0	505	507	0	575	39	5	
6	0	0	0	0	512	509	0	586	39	5	
7	0	0	0	0	511	511	0	590	39	5	
8	0	0	0	0	508	510	0	575	38	5	
9	0	0	0	0	509	511	0	550	39	5	
10	0	0	0	0	511	511	0	518	39	5	
11	0	0	0	0	508	512	0	486	39	5	
12	0	0	0	0	513	513	0	466	39	5	
13	0	0	0	0	512	513	0	455	39	5	
14	0	0	0	0	513	514	0	456	39	5	
15	0	0	0	0	511	514	0	461	39	5	
0	0	0	0	0	509	511	1	454	38	5	
1	0	0	0	0	504	511	0	443	38	5	
2	0	0	0	0	512	512	0	411	38	5	
3	0	0	0	0	514	514	0	385	38	5	
4	0	0	0	0	507	511	0	378	38	5	
5	0	0	0	0	512	511	0	355	38	5	
6	0	0	0	0	518	512	0	348	38	5	
7	0	0	0	0	509	512	0	344	38	5	
8	0	0	0	0	504	510	0	344	38	5	
9	0	0	0	0	507	512	0	342	38	5	
10	0	0	0	0	502	512	0	334	38	5	
11	0	0	0	0	510	513	0	335	38	5	
12	0	0	0	0	508	510	1	334	38	5	
13	0	0	0	0	512	511	0	329	38	5	
14	0	0	0	0	510	511	0	319	38	5	
15	0	0	0	0	506	511	0	312	38	5	
0	0	0	0	0	508	512	1	300	38	5	
1	0	0	0	0	507	510	0	297	38	5	
2	0	0	0	0	513	510	0	296	38	5	
3	0	0	0	0	509	510	0	286	38	5	
4	0	0	0	0	517	511	1	266	38	5	
5	0	0	0	0	515	511	0	241	38	5	
6	0	0	0	0	513	512	0	229	38	5	
7	0	0	0	0	508	515	0	228	38	5	
8	0	0	0	0	505	513	1	217	38	5	
9	0	0	0	0	508	511	0	217	38	5	
10	0	0	0	0	510	509	0	228	38	5	
11	0	0	0	0	511	511	0	244	38	5	
12	0	0	0	0	511	510	1	247	38	5	
13	0	0	0	0	511	510	0	246	39	5	
14	0	0	0	0	512	513	0	237	38	5	
15	0	0	0	0	508	511	0	218	39	5	
0	0	0	0	0	519	510	0	179	38	5	
1	0	0	0	0	510	510	0	138	38	5	
2	0	0	0	0	512	508	0	115	39	5	
3	0	0	0	0	513	509	0	108	39	5	
4	0	0	0	0	511	508	0	115	39	5	
5	0	0	0	0	508	508	0	140	38	5	
6	0	0	0	0	507	508	0	154	39	5	
7	0	0	0	0	510	511	0	151	39	5	
8	0	0	0	0	505	511	1	144	38	5	
9	0	0	0	0	506	511	0	143	38	5	
10	0	0	0	0	504	511	0	169	38	5	
11	0	0	0	0	517	512	0	210	38	5	
12	0	0	0	0	511	512	1	244	38	5	
13	0	0	0	0	515	512	0	260	38	5	
14	0	0	0	0	511	511	0	228	38	5	
15	0	0	0	0	502	513	0	187	38	5	
0	0	0	0	0	508	511	0	151	38	5	
1	0	0	0	0	505	511	0	130	38	5	
2	0	0	0	0	513	511	0	115	38	5	
3	0	0	0	0	515	511	0	105	38	5	
4	0	0	0	0	512	512	0	93	38	5	
5	0	0	0	0	513	513	0	85	38	5	
6	0	0	0	0	515	511	0	82	38	5	
7	0	0	0	0	515	511	0	83	38	5	
8	0	0	0	0	510	511	1	79	38	5	
9	0	0	0	0	504	508	0	61	38	5	
10	0	0	0	0	513	509	0	44	38	5	
11	0	0	0	0	511	511	0	32	38	5	
12	0	0	0	0	514	509	0	25	38	5	
13	0	0	0	0	501	509	0	30	38	5	
14	0	0	0	0	512	509	0	35	38	5	
15	0	0	0	0	512	509	0	38	38	5	
0	0	0	0	0	508	510	1	36	38	5	
1	0	0	0	0	510	509	0	32	38	5	
2	0	0	0	0	514	510	0	34	38	5	
3	0	0	0	0	511	511	0	56	38	5	
4	0	0	0	0	510	511	1	72	38	5	
5	0	0	0	0	503	511	0	75	39	5	
6	0	0	0	0	505	513	0	62	39	5	
7	0	0	0	0	514	513	0	39	39	5	
8	0	0	0	0	512	515	1	26	38	5	
9	0	0	0	0	506	512	0	34	39	5	
10	0	0	0	0	505	512	0	41	39	5	
11	0	0	0	0	513	512	0	42	39	5	
12	0	0	0	0	510	510	1	48	39	5	
13	0	0	0	0	504	510	0	57	39	5	
14	0	0	0	0	512	511	0	73	39	5	
15	0	0	0	0	512	511	0	103	39	5	
0	0	0	0	0	512	511	1	144	39	5	
1	0	0	0	0	503	508	0	193	39	5	
2	0	0	0	0	513	507	0	242	39	5	
3	0	0	0	0	510	510	0	279	39	5	
4	0	0	0	0	516	510	0	309	39	5	
5	0	0	0	0	513	511	0	331	39	5	
6	0	0	0	0	514	512	0	352	39	5	
7	0	0	0	0	509	512	0	388	39	5	
8	0	0	0	0	507	511	0	392	39	5	
9	0	0	0	0	508	511	0	390	39	5	
10	0	0	0	0	505	512	0	389	39	5	
11	0	0	0	0	504	513	0	406	39	5	
12	0	0	0	0	503	513	1	438	39	5	
13	0	0	0	0	507	512	0	487	39	5	
14	0	0	0	0	512	511	0	541	39	5	
15	0	0	0	0	510	513	0	592	39	5	
0	0	0	0	0	519	512	1	640	39	5	
1	0	0	0	0	507	510	0	691	39	5	
2	0	0	0	0	506	510	0	747	39	5	
3	0	0	0	0	515	511	0	814	39	5	
4	0	0	0	0	514	511	1	887	39	5	
5	0	0	0	0	509	512	0	952	39	5	
6	0	0	0	0	513	512	0	1007	39	5	
7	0	0	0	0	518	513	0	1018	38	5	
8	0	0	0	0	504	512	1	1019	39	5	
9	0	0	0	0	506	510	0	1018	39	5	
10	0	0	0	0	511	511	0	1018	39	5	
11	0	0	0	0	507	513	0	1018	39	5	
12	0	0	0	0	512	511	0	1019	39	5	
13	0	0	0	0	514	510	0	1018	39	5	
14	0	0	0	0	513	513	0	1018	39	5	
15	0	0	0	0	511	513	0	1018	39	5	
0	0	0	0	0	510	513	0	1018	39	5	
1	0	0	0	0	510	513	0	1018	39	5	
2	0	0	0	0	507	515	0	1018	39	5	
3	0	0	0	0	504	515	0	1018	39	5	
4	0	0	0	0	512	515	1	1019	39	5	
5	0	0	0	0	516	514	0	1018	39	5	
6	0	0	0	0	510	515	0	1018	39	5	
7	0	0	0	0	501	515	0	1017	39	5	
8	0	0	0	0	513	515	1	1019	39	5	
9	0	0	0	0	512	513	0	1018	39	5	
10	0	0	0	0	518	518	0	1018	39	5	
11	0	0	0	0	515	518	0	1018	39	5	
12	0	0	0	0	508	515	0	1017	39	5	
13	0	0	0	0	504	514	0	1018	39	5	
14	0	0	0	0	510	513	0	1018	39	5	
15	0	0	0	0	512	512	0	1017	39	5	
0	0	0	0	0	513	512	1	1019	39	5	
1	0	0	0	0	515	511	0	1018	39	5	
2	0	0	0	0	512	510	0	1018	39	5	
3	0	0	0	0	508	512	0	1017	39	5	
4	0	0	0	0	509	511	0	1018	39	5	
5	0	0	0	0	505	513	0	1018	39	5	
6	0	0	0	0	502	513	0	1018	39	5	
7	0	0	0	0	516	513	0	1017	39	5	
8	0	0	0	0	509	515	0	1018	39	5	
9	0	0	0	0	511	513	0	1018	39	5	
10	0	0	0	0	515	513	0	1018	39	5	
11	0	0	0	0	509	513	0	985	39	5	
12	0	0	0	0	513	512	1	981	39	5	
13	0	0	0	0	514	510	0	986	39	5	
14	0	0	0	0	508	509	0	980	39	5	
15	0	0	0	0	513	511	0	977	39	5	
0	0	0	0	0	508	511	0	964	39	5	
1	0	0	0	0	503	512	0	946	39	5	
2	0	0	0	0	516	512	0	931	39	5	
3	0	0	0	0	512	515	0	917	39	5	
4	0	0	0	0	515	513	0	902	39	5	
5	0	0	0	0	507	513	0	888	39	5	
6	0	0	0	0	508	514	0	870	39	5	
7	0	0	0	0	514	515	0	859	39	5	
8	0	0	0	0	513	514	0	849	39	5	
9	0	0	0	0	509	514	0	837	39	5	
10	0	0	0	0	502	515	0	824	39	5	
11	0	0	0	0	512	513	0	802	39	5	
12	0	0	0	0	513	514	1	766	39	5	
13	0	0	0	0	510	512	0	734	39	5	
14	0	0	0	0	509	512	0	703	39	5	
15	0	0	0	0	504	514	0	671	39	5	
0	0	0	0	0	511	512	1	641	39	5	
1	0	0	0	0	509	512	0	624	39	5	
2	0	0	0	0	513	513	0	615	39	5	
3	0	0	0	0	505	513	0	613	39	5	
4	0	0	0	0	519	512	1	620	39	5	
5	0	0	0	0	507	512	0	641	39	5	
6	0	0	0	0	506	512	0	673	39	5	
7	0	0	0	0	508	513	0	696	39	5	
8	0	0	0	0	512	513	1	694	39	5	
9	0	0	0	0	510	512	0	676	39	5	
10	0	0	0	0	513	512	0	644	39	5	
11	0	0	0	0	511	512	0	608	39	5	
12	0	0	0	0	506	514	0	590	39	5	
13	0	0	0	0	510	515	0	583	39	5	
14	0	0	0	0	507	513	0	596	39	5	
15	0	0	0	0	511	514	0	600	39	5	
0	0	0	0	0	508	513	1	582	39	5	
1	0	0	0	0	512	511	0	548	39	5	
2	0	0	0	0	509	512	0	518	39	5	
3	0	0	0	0	508	511	0	489	39	5	
4	0	0	0	0	510	512	0	461	39	5	
5	0	0	0	0	510	513	0	451	39	5	
6	0	0	0	0	514	512	0	454	39	5	
7	0	0	0	0	513	515	0	453	39	5	
8	0	0	0	0	500	515	1	454	39	5	
9	0	0	0	0	512	513	0	454	39	5	
10	0	0	0	0	512	514	0	461	39	5	
11	0	0	0	0	517	514	0	470	39	5	
12	0	0	0	0	509	514	1	464	39	5	
13	0	0	0	0	510	513	0	459	39	5	
14	0	0	0	0	503	513	0	454	39	5	
15	0	0	0	0	511	515	0	452	39	5	
0	0	0	0	0	510	514	1	452	39	5	
1	0	0	0	0	512	513	0	456	39	5	
2	0	0	0	0	506	512	0	445	39	5	
3	0	0	0	0	511	514	0	430	39	5	
4	0	0	0	0	508	514	0	428	39	5	
5	0	0	0	0	509	515	0	422	39	5	
6	0	0	0	0	512	515	0	436	39	5	
7	0	0	0	0	507	514	0	459	39	5	
8	0	0	0	0	510	515	0	461	39	5	
9	0	0	0	0	509	515	0	450	39	5	
10	0	0	0	0	513	514	0	418	39	5	
11	0	0	0	0	513	513	0	358	39	5	
12	0	0	0	0	513	514	0	282	39	5	
13	0	0	0	0	511	512	0	229	39	5	
14	0	0	0	0	506	510	0	210	39	5	
15	0	0	0	0	507	511	0	207	39	5	
0	0	0	0	0	513	510	1	205	39	5	
1	0	0	0	0	512	510	0	212	39	5	
2	0	0	0	0	517	510	0	227	39	5	
3	0	0	0	0	502	511	0	244	39	5	
4	0	0	0	0	510	512	0	246	39	5	
5	0	0	0	0	508	511	0	247	39	5	
6	0	0	0	0	505	509	0	254	39	5	
7	0	0	0	0	516	511	0	243	39	5	
8	0	0	0	0	513	510	0	235	39	5	
9	0	0	0	0	508	510	0	232	39	5	
10	0	0	0	0	507	510	0	223	39	5	
11	0	0	0	0	514	511	0	211	39	5	
12	0	0	0	0	518	513	1	196	39	5	
13	0	0	0	0	510	511	0	197	39	5	
14	0	0	0	0	514	512	0	189	39	5	
15	0	0	0	0	509	513	0	186	39	5	
0	0	0	0	0	510	514	1	192	39	5	
1	0	0	0	0	515	515	0	190	39	5	
2	0	0	0	0	513	516	0	205	39	5	
3	0	0	0	0	511	516	0	230	39	5	
4	0	0	0	0	513	516	1	257	39	5	
5	0	0	0	0	514	515	0	279	39	5	
6	0	0	0	0	515	515	0	264	39	5	
7	0	0	0	0	508	513	0	217	39	5	
8	0	0	0	0	505	510	0	173	38	5	
9	0	0	0	0	508	511	0	163	38	5	
10	0	0	0	0	513	511	0	148	39	5	
11	0	0	0	0	502	512	0	141	38	5	
12	0	0	0	0	505	511	0	135	39	5	
13	0	0	0	0	511	508	0	135	39	5	
14	0	0	0	0	513	507	0	133	39	5	
15	0	0	0	0	515	508	0	124	39	5	
0	0	0	0	0	504	510	0	114	39	5	
1	0	0	0	0	505	512	0	109	39	5	
2	0	0	0	0	509	513	0	107	39	5	
3	0	0	0	0	516	514	0	108	38	5	
4	0	0	0	0	513	512	1	116	39	5	
5	0	0	0	0	514	512	0	125	39	5	
6	0	0	0	0	511	510	0	137	39	5	
7	0	0	0	0	512	510	0	141	39	5	
8	0	0	0	0	511	512	1	128	39	5	
9	0	0	0	0	509	511	0	116	39	5	
10	0	0	0	0	510	512	0	110	39	5	
11	0	0	0	0	507	511	0	108	39	5	
12	0	0	0	0	509	513	1	110	39	5	
13	0	0	0	0	512	512	0	119	39	5	
14	0	0	0	0	511	512	0	119	39	5	
15	0	0	0	0	512	512	0	103	39	5	
0	0	0	0	0	509	512	0	73	39	5	
1	0	0	0	0	505	511	0	50	39	5	
2	0	0	0	0	511	512	0	33	39	5	
3	0	0	0	0	513	514	0	27	39	5	
4	0	0	0	0	512	513	0	22	39	5	
5	0	0	0	0	509	514	0	21	39	5	
6	0	0	0	0	510	515	0	35	39	5	
7	0	0	0	0	513	515	0	56	39	5	
8	0	0	0	0	509	514	1	69	39	5	
9	0	0	0	0	510	511	0	69	39	5	
10	0	0	0	0	510	511	0	59	39	5	
11	0	0	0	0	515	511	0	45	39	5	
12	0	0	0	0	512	510	0	36	39	5	
13	0	0	0	0	513	510	0	41	39	5	
14	0	0	0	0	508	508	0	64	39	5	
15	0	0	0	0	509	508	0	88	39	5	
0	0	0	0	0	504	508	1	92	39	5	
1	0	0	0	0	508	508	0	79	39	5	
2	0	0	0	0	513	509	0	63	39	5	
3	0	0	0	0	503	510	0	46	39	5	
4	0	0	0	0	511	512	0	29	39	5	
5	0	0	0	0	511	513	0	14	39	5	
6	0	0	0	0	503	515	0	8	39	5	
7	0	0	0	0	512	514	0	7	39	5	
8	0	0	0	0	509	513	0	9	39	5	
9	0	0	0	0	509	513	0	12	39	5	
10	0	0	0	0	510	512	0	12	39	5	
11	0	0	0	0	503	513	0	11	39	5	
12	0	0	0	0	510	511	0	6	39	5	
13	0	0	0	0	510	511	0	0	39	5	
14	0	0	0	0	502	513	0	0	39	5	
15	0	0	0	0	515	513	0	0	39	5	
0	0	0	0	0	516	511	0	0	39	5	
1	0	0	0	0	511	511	0	0	39	5	
2	0	0	0	0	515	512	0	0	39	5	
3	0	0	0	0	503	511	0	0	39	5	
4	0	0	0	0	511	511	1	39	39	5	
5	0	0	0	0	505	511	0	54	39	5	
6	0	0	0	0	510	511	0	66	39	5	
7	0	0	0	0	511	512	0	63	39	5	
8	0	0	0	0	514	514	1	49	39	5	
9	0	0	0	0	514	513	0	43	39	5	
10	0	0	0	0	502	512	0	43	39	5	
11	0	0	0	0	507	514	0	40	39	5	
12	0	0	0	0	509	516	1	28	39	5	
13	0	0	0	0	507	513	0	14	39	5	
14	0	0	0	0	520	514	0	0	39	5	
15	0	0	0	0	506	513	0	0	39	5	
0	0	0	0	0	509	511	1	0	39	5	
1	0	0	0	0	509	512	0	0	39	5	
2	0	0	0	0	510	514	0	0	39	5	
3	0	0	0	0	511	514	0	0	39	5	
4	0	0	0	0	506	514	1	0	39	5	
5	0	0	0	0	507	514	0	0	39	5	
6	0	0	0	0	508	514	0	0	39	5	
7	0	0	0	0	508	513	0	0	39	5	
8	0	0	0	0	511	515	1	0	39	5	
9	0	0	0	0	511	513	0	0	39	5	
10	0	0	0	0	516	512	0	0	39	5	
11	0	0	0	0	513	513	0	0	39	5	
12	0	0	0	0	505	513	1	0	39	5	
13	0	0	0	0	511	511	0	0	39	5	
14	0	0	0	0	513	512	0	0	39	5	
15	0	0	0	0	516	514	0	0	39	5	
0	0	0	0	0	510	515	1	0	38	5	
1	0	0	0	0	505	515	0	0	38	5	
2	0	0	0	0	504	513	0	0	39	5	
3	0	0	0	0	511	515	0	0	38	5	
4	0	0	0	0	512	513	1	0	38	5	
5	0	0	0	0	505	512	0	0	39	5	
6	0	0	0	0	511	514	0	0	39	5	
7	0	0	0	0	510	513	0	0	39	5	
8	0	0	0	0	512	513	1	0	39	5	
9	0	0	0	0	506	512	0	0	39	5	
10	0	0	0	0	511	512	0	0	39	5	
11	0	0	0	0	507	512	0	0	39	5	
12	0	0	0	0	511	512	0	42	39	5	
13	0	0	0	0	514	511	0	48	39	5	
14	0	0	0	0	506	511	0	50	39	5	
15	0	0	0	0	508	511	0	55	39	5	
0	0	0	0	0	511	511	0	56	39	5	
1	0	0	0	0	514	510	0	50	39	5	
2	0	0	0	0	513	509	0	30	39	5	
3	0	0	0	0	506	510	0	7	39	5	
4	0	0	0	0	509	513	1	0	39	5	
5	0	0	0	0	508	513	0	0	39	5	
6	0	0	0	0	507	512	0	0	39	5	
7	0	0	0	0	511	512	0	0	39	5	
8	0	0	0	0	516	513	0	0	39	5	
9	0	0	0	0	503	513	0	0	39	5	
10	0	0	0	0	512	511	0	0	39	5	
11	0	0	0	0	509	513	0	0	39	5	
12	0	0	0	0	505	513	0	0	39	5	
13	0	0	0	0	509	510	0	0	39	5	
14	0	0	0	0	501	511	0	0	39	5	
15	0	0	0	0	509	511	0	0	39	5	
0	0	0	0	0	515	511	1	0	39	5	
1	0	0	0	0	519	511	0	0	39	5	
2	0	0	0	0	509	511	0	0	39	5	
3	0	0	0	0	506	511	0	0	39	5	
4	0	0	0	0	508	509	0	0	39	5	
5	0	0	0	0	508	508	0	0	39	5	
6	0	0	0	0	507	510	0	0	39	5	
7	0	0	0	0	515	511	0	0	38	5	
8	0	0	0	0	511	511	1	0	38	5	
9	0	0	0	0	513	512	0	0	38	5	
10	0	0	0	0	512	511	0	0	38	5	
11	0	0	0	0	512	511	0	0	38	5	
12	0	0	0	0	505	510	1	0	38	5	
13	0	0	0	0	508	506	0	0	38	5	
14	0	0	0	0	511	509	0	0	38	5	
15	0	0	0	0	510	512	0	0	38	5	
0	0	0	0	0	510	513	0	0	38	5	
1	0	0	0	0	510	513	0	0	39	5	
2	0	0	0	0	515	512	0	0	39	5	
3	0	0	0	0	510	511	0	0	38	5	
4	0	0	0	0	510	511	1	0	38	5	
5	0	0	0	0	514	510	0	0	38	5	
6	0	0	0	0	510	510	0	0	39	5	
7	0	0	0	0	503	511	0	0	39	5	
8	0	0	0	0	505	514	1	0	39	5	
9	0	0	0	0	510	512	0	0	39	5	
10	0	0	0	0	502	512	0	0	39	5	
11	0	0	0	0	510	513	0	0	39	5	
12	0	0	0	0	516	512	1	0	39	5	
13	0	0	0	0	505	511	0	0	39	5	
14	0	0	0	0	511	512	0	0	39	5	
15	0	0	0	0	508	512	0	0	39	5	
0	0	0	0	0	510	512	0	0	39	5	
1	0	0	0	0	513	512	0	0	39	5	
2	0	0	0	0	521	512	0	0	39	5	
3	0	0	0	0	510	512	0	0	39	5	
4	0	0	0	0	506	510	0	51	39	5	
5	0	0	0	0	508	512	0	92	39	5	
6	0	0	0	0	512	513	0	127	39	5	
7	0	0	0	0	508	513	0	155	39	5	
8	0	0	0	0	501	512	1	186	39	5	
9	0	0	0	0	504	512	0	213	39	5	
10	0	0	0	0	511	511	0	248	39	5	
11	0	0	0	0	518	510	0	284	39	5	
12	0	0	0	0	515	510	0	321	39	5	
13	0	0	0	0	510	510	0	356	39	5	
14	0	0	0	0	509	511	0	377	39	5	
15	0	0	0	0	516	511	0	391	39	5	
0	0	0	0	0	509	511	1	379	39	5	
1	0	0	0	0	505	509	0	372	39	5	
2	0	0	0	0	516	512	0	364	39	5	
3	0	0	0	0	513	512	0	358	38	5	
4	0	0	0	0	505	514	0	360	39	5	
5	0	0	0	0	511	510	0	370	39	5	
6	0	0	0	0	510	510	0	388	39	5	
7	0	0	0	0	516	511	0	400	39	5	
8	0	0	0	0	507	511	0	420	39	5	
9	0	0	0	0	507	510	0	429	39	5	
10	0	0	0	0	507	509	0	447	39	5	
11	0	0	0	0	514	511	0	468	39	5	
12	0	0	0	0	516	511	1	472	39	5	
13	0	0	0	0	504	509	0	460	39	5	
14	0	0	0	0	514	510	0	439	39	5	
15	0	0	0	0	512	512	0	422	39	5	
0	0	0	0	0	512	513	1	397	39	5	
1	0	0	0	0	505	513	0	368	39	5	
2	0	0	0	0	512	512	0	338	39	5	
3	0	0	0	0	512	513	0	316	39	5	
4	0	0	0	0	508	513	0	308	39	5	
5	0	0	0	0	508	513	0	323	39	5	
6	0	0	0	0	510	511	0	338	39	5	
7	0	0	0	0	511	511	0	347	39	5	
8	0	0	0	0	507	509	0	342	39	5	
9	0	0	0	0	514	510	0	330	39	5	
10	0	0	0	0	513	512	0	327	39	5	
11	0	0	0	0	510	511	0	324	39	5	
12	0	0	0	0	516	511	1	315	39	5	
13	0	0	0	0	513	510	0	313	39	5	
14	0	0	0	0	505	510	0	319	39	5	
15	0	0	0	0	505	510	0	322	39	5	
0	0	0	0	0	511	508	1	312	39	5	
1	0	0	0	0	509	508	0	296	39	5	
2	0	0	0	0	508	510	0	273	39	5	
3	0	0	0	0	509	509	0	252	39	5	
4	0	0	0	0	515	511	1	238	39	5	
5	0	0	0	0	511	510	0	229	39	5	
6	0	0	0	0	512	511	0	228	39	5	
7	0	0	0	0	507	511	0	235	39	5	
8	0	0	0	0	511	510	0	235	39	5	
9	0	0	0	0	504	509	0	232	39	5	
10	0	0	0	0	510	508	0	231	39	5	
11	0	0	0	0	510	511	0	231	38	5	
12	0	0	0	0	516	513	0	229	39	5	
13	0	0	0	0	504	512	0	224	39	5	
14	0	0	0	0	515	512	0	223	39	5	
15	0	0	0	0	507	511	0	224	39	5	
0	0	0	0	0	510	512	0	224	38	5	
1	0	0	0	0	509	513	0	231	39	5	
2	0	0	0	0	515	513	0	239	39	5	
3	0	0	0	0	504	513	0	249	39	5	
4	0	0	0	0	510	514	1	259	39	5	
5	0	0	0	0	508	513	0	269	39	5	
6	0	0	0	0	507	515	0	267	39	5	
7	0	0	0	0	513	514	0	257	39	5	
8	0	0	0	0	507	515	1	245	39	5	
9	0	0	0	0	509	514	0	229	39	5	
10	0	0	0	0	519	512	0	210	39	5	
11	0	0	0	0	509	514	0	188	39	5	
12	0	0	0	0	511	513	1	181	39	5	
13	0	0	0	0	507	513	0	197	39	5	
14	0	0	0	0	517	513	0	217	39	5	
15	0	0	0	0	508	514	0	225	39	5	
0	0	0	0	0	507	512	1	214	39	5	
1	0	0	0	0	513	510	0	196	39	5	
2	0	0	0	0	510	511	0	166	39	5	
3	0	0	0	0	508	512	0	129	39	5	
4	0	0	0	0	510	511	1	102	39	5	
5	0	0	0	0	504	511	0	106	39	5	
6	0	0	0	0	508	512	0	143	39	5	
7	0	0	0	0	519	512	0	173	39	5	
8	0	0	0	0	507	512	1	198	39	5	
9	0	0	0	0	508	512	0	220	39	5	
10	0	0	0	0	510	513	0	233	39	5	
11	0	0	0	0	506	515	0	246	39	5	
12	0	0	0	0	516	514	0	251	39	5	
13	0	0	0	0	503	513	0	257	39	5	
14	0	0	0	0	506	513	0	239	39	5	
15	0	0	0	0	511	513	0	228	39	5	
0	0	0	0	0	511	512	1	234	39	5	
1	0	0	0	0	510	512	0	226	39	5	
2	0	0	0	0	511	511	0	230	39	5	
3	0	0	0	0	509	512	0	231	39	5	
4	0	0	0	0	512	512	0	228	39	5	
5	0	0	0	0	508	512	0	218	39	5	
6	0	0	0	0	507	512	0	214	39	5	
7	0	0	0	0	512	513	0	201	39	5	
8	0	0	0	0	514	512	1	210	38	5	
9	0	0	0	0	508	510	0	194	39	5	
10	0	0	0	0	508	509	0	161	39	5	
11	0	0	0	0	504	510	0	116	39	5	
12	0	0	0	0	512	510	1	80	39	5	
13	0	0	0	0	509	510	0	75	39	5	
14	0	0	0	0	511	511	0	84	39	5	
15	0	0	0	0	509	511	0	96	39	5	
0	0	0	0	0	511	510	0	110	39	5	
1	0	0	0	0	520	512	0	122	39	5	
2	0	0	0	0	510	512	0	135	39	5	
3	0	0	0	0	508	510	0	158	39	5	
4	0	0	0	0	504	514	1	160	39	5	
5	0	0	0	0	500	513	0	161	39	5	
6	0	0	0	0	513	514	0	164	39	5	
7	0	0	0	0	513	514	0	176	39	5	
8	0	0	0	0	517	515	0	193	39	5	
9	0	0	0	0	511	515	0	201	39	5	
10	0	0	0	0	504	514	0	213	39	5	
11	0	0	0	0	506	515	0	224	38	5	
12	0	0	0	0	508	513	0	231	39	5	
13	0	0	0	0	515	514	0	228	39	5	
14	0	0	0	0	509	513	0	225	39	5	
15	0	0	0	0	510	513	0	219	39	5	
0	0	0	0	0	508	515	1	209	39	5	
1	0	0	0	0	511	512	0	198	39	5	
2	0	0	0	0	511	511	0	185	39	5	
3	0	0	0	0	517	514	0	190	39	5	
4	0	0	0	0	509	516	1	202	39	5	
5	0	0	0	0	511	515	0	196	39	5	
6	0	0	0	0	505	514	0	176	39	5	
7	0	0	0	0	508	516	0	157	39	5	
8	0	0	0	0	511	514	1	147	39	5	
9	0	0	0	0	511	515	0	139	39	5	
10	0	0	0	0	514	515	0	128	39	5	
11	0	0	0	0	514	515	0	118	39	5	
12	0	0	0	0	515	516	1	102	39	5	
13	0	0	0	0	506	514	0	102	39	5	
14	0	0	0	0	509	513	0	108	39	5	
15	0	0	0	0	506	513	0	113	39	5	
0	0	0	0	0	506	511	0	112	39	5	
1	0	0	0	0	503	512	0	113	39	5	
2	0	0	0	0	512	512	0	128	39	5	
3	0	0	0	0	511	512	0	147	39	5	
4	0	0	0	0	503	511	0	156	39	5	
5	0	0	0	0	511	509	0	168	39	5	
6	0	0	0	0	515	510	0	187	39	5	
7	0	0	0	0	512	512	0	199	39	5	
8	0	0	0	0	505	510	0	206	38	5	
9	0	0	0	0	512	511	0	211	38	5	
10	0	0	0	0	509	511	0	218	38	5	
11	0	0	0	0	514	513	0	230	38	5	
12	0	0	0	0	506	512	0	256	39	5	
13	0	0	0	0	508	511	0	291	39	5	
14	0	0	0	0	513	511	0	315	39	5	
15	0	0	0	0	505	512	0	328	38	5	
0	0	0	0	0	510	510	0	334	38	5	
1	0	0	0	0	507	510	0	329	38	5	
2	0	0	0	0	514	512	0	313	38	5	
3	0	0	0	0	512	511	0	290	38	5	
4	0	0	0	0	506	511	0	264	38	5	
5	0	0	0	0	504	510	0	247	38	5	
6	0	0	0	0	514	512	0	225	38	5	
7	0	0	0	0	506	514	0	203	38	5	
8	0	0	0	0	512	512	0	181	38	5	
9	0	0	0	0	511	511	0	158	38	5	
10	0	0	0	0	510	511	0	127	38	5	
11	0	0	0	0	510	514	0	106	38	5	
12	0	0	0	0	515	514	1	105	39	5	
13	0	0	0	0	509	512	0	126	39	5	
14	0	0	0	0	513	514	0	153	39	5	
15	0	0	0	0	513	515	0	172	39	5	
0	0	0	0	0	508	514	1	189	39	5	
1	0	0	0	0	513	513	0	214	39	5	
2	0	0	0	0	508	513	0	220	39	5	
3	0	0	0	0	513	512	0	224	38	5	
4	0	0	0	0	506	513	1	228	39	5	
5	0	0	0	0	509	512	0	236	39	5	
6	0	0	0	0	509	514	0	243	39	5	
7	0	0	0	0	514	513	0	252	39	5	
8	0	0	0	0	509	513	1	240	39	5	
9	0	0	0	0	509	512	0	236	39	5	
10	0	0	0	0	510	513	0	228	39	5	
11	0	0	0	0	511	513	0	216	39	5	
12	0	0	0	0	511	513	1	201	39	5	
13	0	0	0	0	504	513	0	199	39	5	
14	0	0	0	0	511	512	0	188	39	5	
15	0	0	0	0	509	512	0	187	39	5	
0	0	0	0	0	512	513	1	200	39	5	
1	0	0	0	0	516	511	0	219	38	5	
2	0	0	0	0	504	515	0	242	38	5	
3	0	0	0	0	507	516	0	259	39	5	
4	0	0	0	0	499	513	0	267	38	5	
5	0	0	0	0	514	512	0	267	38	5	
6	0	0	0	0	509	513	0	243	39	5	
7	0	0	0	0	512	514	0	206	38	5	
8	0	0	0	0	510	513	0	173	39	5	
9	0	0	0	0	514	512	0	153	39	5	
10	0	0	0	0	516	511	0	139	39	5	
11	0	0	0	0	512	511	0	132	39	5	
12	0	0	0	0	514	511	0	134	39	5	
13	0	0	0	0	507	514	0	135	39	5	
14	0	0	0	0	512	515	0	144	39	5	
15	0	0	0	0	512	514	0	156	39	5	
0	0	0	0	0	515	512	0	166	39	5	
1	0	0	0	0	505	511	0	177	39	5	
2	0	0	0	0	504	512	0	180	39	5	
3	0	0	0	0	509	512	0	174	39	5	
4	0	0	0	0	512	512	1	167	39	5	
5	0	0	0	0	511	513	0	166	39	5	
6	0	0	0	0	512	514	0	169	39	5	
7	0	0	0	0	504	515	0	184	39	5	
8	0	0	0	0	511	514	0	197	39	5	
9	0	0	0	0	506	513	0	219	39	5	
10	0	0	0	0	516	513	0	250	39	5	
11	0	0	0	0	508	514	0	274	39	5	
12	0	0	0	0	509	513	1	273	39	5	
13	0	0	0	0	508	512	0	251	39	5	
14	0	0	0	0	510	512	0	221	39	5	
15	0	0	0	0	504	513	0	196	39	5	
0	0	0	0	0	519	513	1	175	39	5	
1	0	0	0	0	507	510	0	173	39	5	
2	0	0	0	0	508	513	0	177	39	5	
3	0	0	0	0	513	512	0	175	39	5	
4	0	0	0	0	512	511	1	167	39	5	
5	0	0	0	0	512	511	0	159	39	5	
6	0	0	0	0	519	511	0	160	39	5	
7	0	0	0	0	510	512	0	175	38	5	
8	0	0	0	0	510	513	0	188	39	5	
9	0	0	0	0	513	514	0	184	39	5	
10	0	0	0	0	511	515	0	185	38	5	
11	0	0	0	0	505	514	0	175	39	5	
12	0	0	0	0	508	515	0	147	39	5	
13	0	0	0	0	507	515	0	127	39	5	
14	0	0	0	0	514	515	0	119	39	5	
15	0	0	0	0	510	515	0	118	39	5	
0	0	0	0	0	511	514	1	117	39	5	
1	0	0	0	0	505	511	0	121	39	5	
2	0	0	0	0	505	512	0	121	39	5	
3	0	0	0	0	514	513	0	121	39	5	
4	0	0	0	0	512	513	0	114	39	5	
5	0	0	0	0	508	514	0	116	39	5	
6	0	0	0	0	507	511	0	123	39	5	
7	0	0	0	0	506	510	0	126	39	5	
8	0	0	0	0	516	512	1	126	39	5	
9	0	0	0	0	508	511	0	135	39	5	
10	0	0	0	0	515	510	0	151	39	5	
11	0	0	0	0	503	510	0	168	39	5	
12	0	0	0	0	513	510	0	177	39	5	
13	0	0	0	0	511	507	0	193	39	5	
14	0	0	0	0	508	508	0	213	39	5	
15	0	0	0	0	509	509	0	224	39	5	
0	0	0	0	0	514	510	0	216	39	5	
1	0	0	0	0	518	510	0	225	39	5	
2	0	0	0	0	512	509	0	229	39	5	
3	0	0	0	0	511	508	0	228	39	5	
4	0	0	0	0	507	510	1	228	39	5	
5	0	0	0	0	508	508	0	229	39	5	
6	0	0	0	0	510	508	0	225	39	5	
7	0	0	0	0	505	508	0	223	39	5	
8	0	0	0	0	507	508	0	225	38	5	
9	0	0	0	0	502	508	0	224	39	5	
10	0	0	0	0	510	510	0	233	39	5	
11	0	0	0	0	511	510	0	244	38	5	
12	0	0	0	0	508	511	0	257	39	5	
13	0	0	0	0	517	512	0	259	38	5	
14	0	0	0	0	510	511	0	260	39	5	
15	0	0	0	0	513	513	0	244	39	5	
0	0	0	0	0	505	514	1	203	38	5	
1	0	0	0	0	512	512	0	138	39	5	
2	0	0	0	0	510	512	0	69	39	5	
3	0	0	0	0	511	515	0	11	39	5	
4	0	0	0	0	506	515	1	0	38	5	
5	0	0	0	0	508	513	0	0	39	5	
6	0	0	0	0	505	513	0	0	39	5	
7	0	0	0	0	512	512	0	0	39	5	
8	0	0	0	0	511	513	0	0	39	5	
9	0	0	0	0	513	513	0	0	39	5	
10	0	0	0	0	511	512	0	0	39	5	
11	0	0	0	0	508	513	0	0	39	5	
12	0	0	0	0	503	513	1	0	39	5	
13	0	0	0	0	513	511	0	0	39	5	
14	0	0	0	0	505	513	0	0	39	5	
15	0	0	0	0	513	513	0	0	39	5	
0	0	0	0	0	518	512	0	0	39	5	
1	0	0	0	0	508	512	0	0	39	5	
2	0	0	0	0	506	512	0	0	39	5	
3	0	0	0	0	508	512	0	0	39	5	
4	0	0	0	0	508	511	0	0	39	5	
5	0	0	0	0	505	510	0	0	39	5	
6	0	0	0	0	511	510	0	0	39	5	
7	0	0	0	0	514	509	0	0	39	5	
8	0	0	0	0	515	509	0	0	39	5	
9	0	0	0	0	513	508	0	0	39	5	
10	0	0	0	0	509	508	0	0	39	5	
11	0	0	0	0	512	511	0	0	39	5	
12	0	0	0	0	512	511	1	0	39	5	
13	0	0	0	0	507	509	0	0	39	5	
14	0	0	0	0	509	510	0	0	39	5	
15	0	0	0	0	510	511	0	0	39	5	
0	0	0	0	0	508	508	0	0	39	5	
1	0	0	0	0	512	508	0	0	39	5	
2	0	0	0	0	515	509	0	0	39	5	
3	0	0	0	0	513	510	0	0	39	5	
4	0	0	0	0	511	511	1	0	39	5	
5	0	0	0	0	512	511	0	0	39	5	
6	0	0	0	0	516	511	0	0	39	5	
7	0	0	0	0	513	512	0	0	38	5	
8	0	0	0	0	502	515	1	0	39	5	
9	0	0	0	0	513	515	0	0	38	5	
10	0	0	0	0	504	514	0	0	38	5	
11	0	0	0	0	514	514	0	0	38	5	
12	0	0	0	0	508	515	1	0	39	5	
13	0	0	0	0	503	512	0	0	39	5	
14	0	0	0	0	509	513	0	0	38	5	
15	0	0	0	0	504	512	0	0	38	5	
0	0	0	0	0	513	511	0	0	38	5	
1	0	0	0	0	512	511	0	0	38	5	
2	0	0	0	0	509	511	0	0	39	5	
3	0	0	0	0	511	512	0	0	38	5	
4	0	0	0	0	510	514	0	0	39	5	
5	0	0	0	0	511	512	0	0	38	5	
6	0	0	0	0	513	511	0	0	38	5	
7	0	0	0	0	506	511	0	0	39	5	
8	0	0	0	0	507	512	0	0	39	5	
9	0	0	0	0	511	513	0	0	38	5	
10	0	0	0	0	511	512	0	0	39	5	
11	0	0	0	0	512	512	0	0	39	5	
12	0	0	0	0	508	510	0	0	39	5	
13	0	0	0	0	507	511	0	0	39	5	
14	0	0	0	0	510	511	0	0	39	5	
15	0	0	0	0	509	511	0	0	39	5	
0	0	0	0	0	515	512	1	0	38	5	
1	0	0	0	0	512	511	0	0	39	5	
2	0	0	0	0	515	510	0	0	39	5	
3	0	0	0	0	507	511	0	0	39	5	
4	0	0	0	0	513	511	1	0	39	5	
5	0	0	0	0	508	508	0	0	39	5	
6	0	0	0	0	513	508	0	0	39	5	
7	0	0	0	0	508	508	0	0	39	5	
8	0	0	0	0	508	508	1	0	39	5	
9	0	0	0	0	504	509	0	0	39	5	
10	0	0	0	0	509	509	0	0	38	5	
11	0	0	0	0	515	509	0	0	38	5	
12	0	0	0	0	514	508	0	0	38	5	
13	0	0	0	0	505	508	0	0	38	5	
14	0	0	0	0	508	507	0	0	38	5	
15	0	0	0	0	511	511	0	0	38	5	
0	0	0	0	0	514	512	1	0	38	5	
1	0	0	0	0	510	511	0	0	38	5	
2	0	0	0	0	509	511	0	0	38	5	
3	0	0	0	0	513	513	0	0	38	5	
4	0	0	0	0	503	514	0	0	38	5	
5	0	0	0	0	508	514	0	0	38	5	
6	0	0	0	0	515	514	0	0	38	5	
7	0	0	0	0	504	515	0	0	38	5	
8	0	0	0	0	511	512	0	0	38	5	
9	0	0	0	0	512	512	0	0	38	5	
10	0	0	0	0	514	513	0	0	38	5	
11	0	0	0	0	509	514	0	0	38	5	
12	0	0	0	0	507	513	0	0	39	5	
13	0	0	0	0	507	513	0	0	38	5	
14	0	0	0	0	515	513	0	0	38	5	
15	0	0	0	0	506	514	0	0	38	5	
0	0	0	0	0	508	514	1	0	38	5	
1	0	0	0	0	506	513	0	0	38	5	
2	0	0	0	0	510	513	0	0	38	5	
3	0	0	0	0	514	514	0	0	38	5	
4	0	0	0	0	506	516	1	0	38	5	
5	0	0	0	0	514	514	0	0	38	5	
6	0	0	0	0	504	515	0	0	38	5	
7	0	0	0	0	511	515	0	0	38	5	
8	0	0	0	0	515	515	1	0	38	5	
9	0	0	0	0	515	515	0	0	38	5	
10	0	0	0	0	516	514	0	0	38	5	
11	0	0	0	0	506	513	0	0	38	5	
12	0	0	0	0	500	512	0	0	38	5	
13	0	0	0	0	514	512	0	0	38	5	
14	0	0	0	0	511	513	0	0	38	5	
15	0	0	0	0	514	513	0	0	38	5	
0	0	0	0	0	515	515	1	0	38	5	
1	0	0	0	0	514	514	0	0	38	5	
2	0	0	0	0	508	513	0	0	38	5	
3	0	0	0	0	508	514	0	0	38	5	
4	0	0	0	0	515	513	0	0	38	5	
5	0	0	0	0	509	514	0	0	38	5	
6	0	0	0	0	505	515	0	0	38	5	
7	0	0	0	0	515	516	0	0	38	5	
8	0	0	0	0	512	513	0	0	38	5	
9	0	0	0	0	520	512	0	0	38	5	
10	0	0	0	0	509	514	0	0	38	5	
11	0	0	0	0	503	515	0	0	38	5	
12	0	0	0	0	505	515	0	0	38	5	
13	0	0	0	0	510	514	0	28	38	5	
14	0	0	0	0	512	515	0	28	38	5	
