# OpenSignals Text File Format. Version 1
# {"84:BA:20:AE:BF:DA": {"position": 0, "device": "bitalino_rev", "device name": "84:BA:20:AE:BF:DA", "device connection": "BTH84:BA:20:AE:BF:DA", "sampling rate": 1000, "resolution": [4, 1, 1, 1, 1, 10, 10, 10, 10, 6, 6], "firmware version": 1282, "comments": "", "keywords": "", "mode": 0, "sync interval": 2, "date": "2025-11-16", "time": "18:8:14.463", "channels": [1, 2, 3, 4, 5, 6], "sensor": ["RAW", "RAW", "RAW", "RAW", "RAW", "RAW"], "label": ["A1", "A2", "A3", "A4", "A5", "A6"], "column": ["nSeq", "I1", "I2", "O1", "O2", "A1", "A2", "A3", "A4", "A5", "A6"], "special": [{}, {}, {}, {}, {}, {}], "digital IO": [0, 0, 1, 1], "convertedValues": 0}}
# EndOfHeader
0	0	0	0	0	513	512	0	597	32	0	
1	0	0	0	0	508	511	0	593	32	0	
2	0	0	0	0	512	512	0	589	32	0	
3	0	0	0	0	511	512	0	607	32	0	
4	0	0	0	0	510	513	1	614	32	0	
5	0	0	0	0	506	513	0	617	32	0	
6	0	0	0	0	507	513	0	617	32	0	
7	0	0	0	0	508	513	0	619	32	0	
8	0	0	0	0	512	513	1	615	32	0	
9	0	0	0	0	511	514	0	618	32	0	
10	0	0	0	0	513	515	0	611	32	0	
11	0	0	0	0	509	516	0	594	32	0	
12	0	0	0	0	512	516	1	576	32	0	
13	0	0	0	0	510	515	0	573	32	0	
14	0	0	0	0	513	513	0	579	32	0	
15	0	0	0	0	514	513	0	584	32	0	
0	0	0	0	0	513	514	1	588	32	0	
1	0	0	0	0	507	511	0	593	32	0	
2	0	0	0	0	508	512	0	597	32	0	
3	0	0	0	0	514	513	0	603	32	0	
4	0	0	0	0	511	511	1	607	32	0	
5	0	0	0	0	507	511	0	603	32	0	
6	0	0	0	0	505	509	0	606	32	0	
7	0	0	0	0	503	511	0	604	32	0	
8	0	0	0	0	512	510	1	598	32	0	
9	0	0	0	0	509	512	0	586	32	0	
10	0	0	0	0	509	510	0	567	32	0	
11	0	0	0	0	511	511	0	542	32	0	
12	0	0	0	0	514	511	1	515	32	0	
13	0	0	0	0	511	513	0	501	32	0	
14	0	0	0	0	509	513	0	501	32	0	
15	0	0	0	0	511	515	0	506	32	0	
0	0	0	0	0	510	514	0	519	32	0	
1	0	0	0	0	509	514	0	543	32	0	
2	0	0	0	0	507	515	0	574	32	0	
3	0	0	0	0	512	514	0	592	32	0	
4	0	0	0	0	510	514	1	601	32	0	
5	0	0	0	0	506	512	0	606	32	0	
6	0	0	0	0	504	512	0	610	32	0	
7	0	0	0	0	508	515	0	601	32	0	
8	0	0	0	0	511	513	0	593	32	0	
9	0	0	0	0	508	512	0	582	32	0	
10	0	0	0	0	515	513	0	571	32	0	
11	0	0	0	0	508	514	0	552	32	0	
12	0	0	0	0	507	514	1	534	32	0	
13	0	0	0	0	515	512	0	531	32	0	
14	0	0	0	0	512	511	0	534	32	0	
15	0	0	0	0	510	511	0	550	32	0	
0	0	0	0	0	514	510	0	579	32	0	
1	0	0	0	0	506	511	0	606	32	0	
2	0	0	0	0	513	509	0	627	32	0	
3	0	0	0	0	511	509	0	644	32	0	
4	0	0	0	0	516	510	0	654	33	0	
5	0	0	0	0	514	509	0	661	32	0	
6	0	0	0	0	510	508	0	662	32	0	
7	0	0	0	0	512	510	0	660	32	0	
8	0	0	0	0	504	510	1	648	32	0	
9	0	0	0	0	510	508	0	638	32	0	
10	0	0	0	0	513	508	0	609	32	0	
11	0	0	0	0	505	509	0	592	32	0	
12	0	0	0	0	510	510	1	580	32	0	
13	0	0	0	0	504	512	0	582	32	0	
14	0	0	0	0	516	511	0	561	32	0	
15	0	0	0	0	513	513	0	563	32	0	
0	0	0	0	0	512	512	1	565	32	0	
1	0	0	0	0	512	512	0	568	32	0	
2	0	0	0	0	503	513	0	567	32	0	
3	0	0	0	0	513	513	0	566	32	0	
4	0	0	0	0	506	513	1	581	32	0	
5	0	0	0	0	508	512	0	584	32	0	
6	0	0	0	0	506	514	0	603	32	0	
7	0	0	0	0	509	514	0	627	32	0	
8	0	0	0	0	508	512	1	643	32	0	
9	0	0	0	0	515	511	0	645	32	0	
10	0	0	0	0	513	512	0	640	32	0	
11	0	0	0	0	515	513	0	634	32	0	
12	0	0	0	0	504	512	0	629	32	0	
13	0	0	0	0	513	512	0	633	32	0	
14	0	0	0	0	513	514	0	634	32	0	
15	0	0	0	0	513	515	0	627	32	0	
0	0	0	0	0	507	514	0	623	32	0	
1	0	0	0	0	506	513	0	617	32	0	
2	0	0	0	0	511	512	0	615	32	0	
3	0	0	0	0	510	512	0	625	32	0	
4	0	0	0	0	511	513	0	624	32	0	
5	0	0	0	0	511	514	0	614	32	0	
6	0	0	0	0	515	515	0	610	32	0	
7	0	0	0	0	511	515	0	620	32	0	
8	0	0	0	0	514	517	1	633	32	0	
9	0	0	0	0	510	514	0	638	32	0	
10	0	0	0	0	511	515	0	638	32	0	
11	0	0	0	0	510	514	0	629	32	0	
12	0	0	0	0	505	513	1	619	32	0	
13	0	0	0	0	511	512	0	606	32	0	
14	0	0	0	0	512	511	0	590	32	0	
15	0	0	0	0	514	511	0	571	32	0	
0	0	0	0	0	513	511	0	555	32	0	
1	0	0	0	0	514	511	0	556	32	0	
2	0	0	0	0	508	510	0	568	32	0	
3	0	0	0	0	510	511	0	587	32	0	
4	0	0	0	0	505	511	0	611	32	0	
5	0	0	0	0	506	512	0	628	32	0	
6	0	0	0	0	506	511	0	642	32	0	
7	0	0	0	0	520	511	0	644	32	0	
8	0	0	0	0	513	511	0	632	33	0	
9	0	0	0	0	511	510	0	625	32	0	
10	0	0	0	0	511	512	0	628	32	0	
11	0	0	0	0	512	513	0	627	33	0	
12	0	0	0	0	508	513	1	609	32	0	
13	0	0	0	0	511	513	0	593	32	0	
14	0	0	0	0	512	511	0	582	32	0	
15	0	0	0	0	516	512	0	591	32	0	
0	0	0	0	0	507	514	1	582	32	0	
1	0	0	0	0	515	514	0	591	32	0	
2	0	0	0	0	511	514	0	597	32	0	
3	0	0	0	0	505	513	0	601	32	0	
4	0	0	0	0	510	512	1	593	32	0	
5	0	0	0	0	505	511	0	583	32	0	
6	0	0	0	0	507	511	0	578	32	0	
7	0	0	0	0	506	511	0	577	32	0	
8	0	0	0	0	512	510	0	584	32	0	
9	0	0	0	0	504	509	0	588	32	0	
10	0	0	0	0	512	508	0	588	32	0	
11	0	0	0	0	511	511	0	584	32	0	
12	0	0	0	0	511	510	1	588	32	0	
13	0	0	0	0	513	508	0	592	32	0	
14	0	0	0	0	508	509	0	596	32	0	
15	0	0	0	0	510	512	0	592	32	0	
0	0	0	0	0	511	512	1	583	32	0	
1	0	0	0	0	508	512	0	586	32	0	
2	0	0	0	0	513	511	0	594	32	0	
3	0	0	0	0	509	513	0	604	32	0	
4	0	0	0	0	507	512	0	606	32	0	
5	0	0	0	0	511	515	0	609	32	0	
6	0	0	0	0	509	513	0	607	32	0	
7	0	0	0	0	507	514	0	606	32	0	
8	0	0	0	0	516	515	1	605	32	0	
9	0	0	0	0	506	512	0	606	32	0	
10	0	0	0	0	512	512	0	607	32	0	
11	0	0	0	0	511	513	0	614	32	0	
12	0	0	0	0	516	511	0	626	32	0	
13	0	0	0	0	508	511	0	630	32	0	
14	0	0	0	0	506	513	0	624	32	0	
15	0	0	0	0	510	512	0	614	32	0	
0	0	0	0	0	516	513	0	622	32	0	
1	0	0	0	0	513	513	0	607	32	0	
2	0	0	0	0	507	512	0	604	32	0	
3	0	0	0	0	512	511	0	592	32	0	
4	0	0	0	0	509	512	1	574	32	0	
5	0	0	0	0	513	510	0	572	32	0	
6	0	0	0	0	512	510	0	587	32	0	
7	0	0	0	0	507	511	0	598	32	0	
8	0	0	0	0	503	513	1	592	32	0	
9	0	0	0	0	515	513	0	572	32	0	
10	0	0	0	0	511	512	0	543	32	0	
11	0	0	0	0	509	514	0	525	32	0	
12	0	0	0	0	511	513	1	504	33	0	
13	0	0	0	0	507	514	0	504	32	0	
14	0	0	0	0	504	516	0	492	32	0	
15	0	0	0	0	508	515	0	496	32	0	
0	0	0	0	0	513	515	1	496	32	0	
1	0	0	0	0	520	513	0	495	32	0	
2	0	0	0	0	507	513	0	496	32	0	
3	0	0	0	0	513	515	0	497	32	0	
4	0	0	0	0	512	515	1	495	32	0	
5	0	0	0	0	505	514	0	499	32	0	
6	0	0	0	0	509	513	0	521	32	0	
7	0	0	0	0	508	512	0	537	32	0	
8	0	0	0	0	512	512	1	549	32	0	
9	0	0	0	0	510	512	0	555	32	0	
10	0	0	0	0	508	511	0	548	32	0	
11	0	0	0	0	507	513	0	536	32	0	
12	0	0	0	0	507	512	1	525	32	0	
13	0	0	0	0	507	511	0	516	32	0	
14	0	0	0	0	512	511	0	512	32	0	
15	0	0	0	0	504	511	0	508	32	0	
0	0	0	0	0	510	511	0	500	32	0	
1	0	0	0	0	511	512	0	497	32	0	
2	0	0	0	0	509	512	0	496	32	0	
3	0	0	0	0	510	512	0	487	32	0	
4	0	0	0	0	511	511	1	484	33	0	
5	0	0	0	0	511	510	0	474	32	0	
6	0	0	0	0	511	511	0	476	32	0	
7	0	0	0	0	512	510	0	488	32	0	
8	0	0	0	0	507	511	0	507	32	0	
9	0	0	0	0	512	509	0	527	32	0	
10	0	0	0	0	514	510	0	544	32	0	
11	0	0	0	0	505	509	0	552	32	0	
12	0	0	0	0	506	509	1	555	32	0	
13	0	0	0	0	512	510	0	563	32	0	
14	0	0	0	0	511	511	0	562	32	0	
15	0	0	0	0	515	512	0	539	32	0	
0	0	0	0	0	515	513	1	507	32	0	
1	0	0	0	0	504	512	0	479	32	0	
2	0	0	0	0	511	512	0	474	32	0	
3	0	0	0	0	514	514	0	487	32	0	
4	0	0	0	0	503	515	1	504	32	0	
5	0	0	0	0	508	515	0	527	32	0	
6	0	0	0	0	509	516	0	553	32	0	
7	0	0	0	0	513	515	0	566	32	0	
8	0	0	0	0	509	515	1	571	32	0	
9	0	0	0	0	500	515	0	579	32	0	
10	0	0	0	0	510	514	0	577	32	0	
11	0	0	0	0	505	514	0	571	32	0	
12	0	0	0	0	509	513	1	570	32	0	
13	0	0	0	0	513	512	0	580	32	0	
14	0	0	0	0	502	512	0	588	32	0	
15	0	0	0	0	508	512	0	585	32	0	
0	0	0	0	0	516	513	1	585	32	0	
1	0	0	0	0	514	512	0	593	32	0	
2	0	0	0	0	511	512	0	590	32	0	
3	0	0	0	0	514	511	0	588	32	0	
4	0	0	0	0	512	511	0	603	32	0	
5	0	0	0	0	509	511	0	624	32	0	
6	0	0	0	0	506	512	0	636	32	0	
7	0	0	0	0	515	513	0	629	32	0	
8	0	0	0	0	510	512	1	622	32	0	
9	0	0	0	0	510	515	0	624	32	0	
10	0	0	0	0	514	515	0	632	32	0	
11	0	0	0	0	510	515	0	630	32	0	
12	0	0	0	0	507	513	1	629	32	0	
13	0	0	0	0	507	512	0	637	32	0	
14	0	0	0	0	513	512	0	638	32	0	
15	0	0	0	0	515	512	0	627	32	0	
0	0	0	0	0	505	512	0	616	32	0	
1	0	0	0	0	506	511	0	601	32	0	
2	0	0	0	0	508	512	0	575	32	0	
3	0	0	0	0	512	515	0	547	32	0	
4	0	0	0	0	509	513	1	535	32	0	
5	0	0	0	0	508	513	0	540	32	0	
6	0	0	0	0	512	513	0	552	32	0	
7	0	0	0	0	512	513	0	560	32	0	
8	0	0	0	0	516	512	1	565	32	0	
9	0	0	0	0	513	511	0	569	32	0	
10	0	0	0	0	508	512	0	574	32	0	
11	0	0	0	0	515	512	0	576	32	0	
12	0	0	0	0	506	511	1	583	32	0	
13	0	0	0	0	509	512	0	599	32	0	
14	0	0	0	0	510	513	0	614	32	0	
15	0	0	0	0	504	514	0	615	32	0	
0	0	0	0	0	513	513	0	604	33	0	
1	0	0	0	0	505	513	0	591	32	0	
2	0	0	0	0	505	514	0	575	32	0	
3	0	0	0	0	512	513	0	554	32	0	
4	0	0	0	0	513	513	1	540	32	0	
5	0	0	0	0	514	512	0	539	32	0	
6	0	0	0	0	505	512	0	540	32	0	
7	0	0	0	0	511	513	0	536	32	0	
8	0	0	0	0	508	512	1	524	32	0	
9	0	0	0	0	513	512	0	520	32	0	
10	0	0	0	0	515	512	0	522	32	0	
11	0	0	0	0	508	511	0	536	32	0	
12	0	0	0	0	508	514	1	556	32	0	
13	0	0	0	0	513	511	0	556	32	0	
14	0	0	0	0	515	511	0	543	32	0	
15	0	0	0	0	507	512	0	524	32	0	
0	0	0	0	0	505	511	0	514	32	0	
1	0	0	0	0	515	510	0	513	32	0	
2	0	0	0	0	508	511	0	520	32	0	
3	0	0	0	0	509	511	0	529	32	0	
4	0	0	0	0	509	510	0	540	33	0	
5	0	0	0	0	506	511	0	549	32	0	
6	0	0	0	0	504	512	0	550	32	0	
7	0	0	0	0	506	512	0	536	32	0	
8	0	0	0	0	512	512	0	536	32	0	
9	0	0	0	0	508	512	0	561	32	0	
10	0	0	0	0	512	513	0	583	32	0	
11	0	0	0	0	508	513	0	590	32	0	
12	0	0	0	0	512	513	1	574	32	0	
13	0	0	0	0	510	512	0	561	32	0	
14	0	0	0	0	508	512	0	556	32	0	
15	0	0	0	0	511	513	0	543	32	0	
0	0	0	0	0	508	514	1	521	32	0	
1	0	0	0	0	514	514	0	515	32	0	
2	0	0	0	0	513	513	0	523	32	0	
3	0	0	0	0	515	513	0	531	32	0	
4	0	0	0	0	510	512	1	536	32	0	
5	0	0	0	0	511	511	0	547	32	0	
6	0	0	0	0	505	511	0	548	32	0	
7	0	0	0	0	507	512	0	546	32	0	
8	0	0	0	0	508	512	1	529	32	0	
9	0	0	0	0	512	511	0	518	32	0	
10	0	0	0	0	514	511	0	504	32	0	
11	0	0	0	0	505	511	0	499	32	0	
12	0	0	0	0	509	511	1	505	32	0	
13	0	0	0	0	512	511	0	516	32	0	
14	0	0	0	0	509	510	0	533	32	0	
15	0	0	0	0	511	510	0	542	32	0	
0	0	0	0	0	512	510	1	526	32	0	
1	0	0	0	0	509	510	0	486	32	0	
2	0	0	0	0	503	511	0	443	32	0	
3	0	0	0	0	506	512	0	419	32	0	
4	0	0	0	0	515	511	0	411	32	0	
5	0	0	0	0	515	512	0	407	32	0	
6	0	0	0	0	514	513	0	407	32	0	
7	0	0	0	0	508	512	0	411	32	0	
8	0	0	0	0	506	515	1	409	32	0	
9	0	0	0	0	503	513	0	410	32	0	
10	0	0	0	0	511	513	0	413	32	0	
11	0	0	0	0	511	513	0	409	32	0	
12	0	0	0	0	514	514	1	408	32	0	
13	0	0	0	0	508	512	0	423	32	0	
14	0	0	0	0	512	512	0	441	32	0	
15	0	0	0	0	508	511	0	460	32	0	
0	0	0	0	0	504	510	0	470	32	0	
1	0	0	0	0	504	511	0	482	32	0	
2	0	0	0	0	515	511	0	492	32	0	
3	0	0	0	0	509	512	0	499	32	0	
4	0	0	0	0	507	511	1	501	32	0	
5	0	0	0	0	517	510	0	489	32	0	
6	0	0	0	0	511	512	0	458	32	0	
7	0	0	0	0	510	513	0	435	32	0	
8	0	0	0	0	509	514	0	426	32	0	
9	0	0	0	0	516	514	0	420	32	0	
10	0	0	0	0	514	513	0	413	32	0	
11	0	0	0	0	511	512	0	398	32	0	
12	0	0	0	0	511	511	1	390	32	0	
13	0	0	0	0	508	509	0	386	32	0	
14	0	0	0	0	507	508	0	397	32	0	
15	0	0	0	0	503	511	0	417	32	0	
0	0	0	0	0	508	512	0	433	32	0	
1	0	0	0	0	510	511	0	438	32	0	
2	0	0	0	0	511	510	0	439	32	0	
3	0	0	0	0	506	511	0	436	32	0	
4	0	0	0	0	512	511	0	425	33	0	
5	0	0	0	0	515	512	0	409	32	0	
6	0	0	0	0	515	513	0	396	32	0	
7	0	0	0	0	508	515	0	390	32	0	
8	0	0	0	0	510	513	0	403	32	0	
9	0	0	0	0	512	515	0	422	32	0	
10	0	0	0	0	506	515	0	435	32	0	
11	0	0	0	0	513	515	0	440	32	0	
12	0	0	0	0	515	513	1	440	32	0	
13	0	0	0	0	505	511	0	448	32	0	
14	0	0	0	0	511	511	0	467	32	0	
15	0	0	0	0	511	512	0	478	32	0	
0	0	0	0	0	508	511	1	465	32	0	
1	0	0	0	0	513	511	0	455	32	0	
2	0	0	0	0	516	512	0	457	32	0	
3	0	0	0	0	508	512	0	453	32	0	
4	0	0	0	0	516	513	0	447	32	0	
5	0	0	0	0	507	512	0	437	32	0	
6	0	0	0	0	503	513	0	420	32	0	
7	0	0	0	0	516	512	0	422	32	0	
8	0	0	0	0	511	512	1	431	32	0	
9	0	0	0	0	504	511	0	436	32	0	
10	0	0	0	0	517	512	0	435	32	0	
11	0	0	0	0	517	511	0	433	32	0	
12	0	0	0	0	511	513	0	444	32	0	
13	0	0	0	0	504	511	0	460	32	0	
14	0	0	0	0	511	510	0	473	32	0	
15	0	0	0	0	516	510	0	470	32	0	
0	0	0	0	0	513	509	0	461	32	0	
1	0	0	0	0	509	508	0	444	32	0	
2	0	0	0	0	505	508	0	432	32	0	
3	0	0	0	0	508	508	0	428	32	0	
4	0	0	0	0	513	510	1	432	32	0	
5	0	0	0	0	506	508	0	449	32	0	
6	0	0	0	0	514	508	0	459	32	0	
7	0	0	0	0	509	509	0	466	33	0	
8	0	0	0	0	505	513	1	466	32	0	
9	0	0	0	0	507	512	0	467	32	0	
10	0	0	0	0	501	511	0	453	32	0	
11	0	0	0	0	513	513	0	432	32	0	
12	0	0	0	0	510	513	1	417	32	0	
13	0	0	0	0	508	511	0	419	32	0	
14	0	0	0	0	510	512	0	437	32	0	
15	0	0	0	0	510	512	0	455	32	0	
0	0	0	0	0	512	514	1	467	32	0	
1	0	0	0	0	508	511	0	486	32	0	
2	0	0	0	0	513	510	0	508	32	0	
3	0	0	0	0	511	513	0	520	32	0	
4	0	0	0	0	511	513	1	531	32	0	
5	0	0	0	0	511	511	0	534	32	0	
6	0	0	0	0	511	510	0	548	32	0	
7	0	0	0	0	501	512	0	558	32	0	
8	0	0	0	0	508	511	0	557	32	0	
9	0	0	0	0	510	512	0	555	32	0	
10	0	0	0	0	513	511	0	567	32	0	
11	0	0	0	0	512	513	0	585	32	0	
12	0	0	0	0	509	512	1	599	32	0	
13	0	0	0	0	501	512	0	614	32	0	
14	0	0	0	0	511	511	0	630	32	0	
15	0	0	0	0	508	512	0	638	32	0	
0	0	0	0	0	515	511	1	639	32	0	
1	0	0	0	0	510	510	0	631	32	0	
2	0	0	0	0	507	510	0	619	32	0	
3	0	0	0	0	514	510	0	610	32	0	
4	0	0	0	0	513	510	1	605	32	0	
5	0	0	0	0	506	511	0	590	32	0	
6	0	0	0	0	511	510	0	568	32	0	
7	0	0	0	0	510	511	0	554	32	0	
8	0	0	0	0	513	512	1	545	32	0	
9	0	0	0	0	515	512	0	553	32	0	
10	0	0	0	0	512	512	0	572	32	0	
11	0	0	0	0	507	512	0	585	32	0	
12	0	0	0	0	515	512	1	592	33	0	
13	0	0	0	0	504	511	0	591	32	0	
14	0	0	0	0	513	512	0	582	32	0	
15	0	0	0	0	511	512	0	583	32	0	
0	0	0	0	0	510	510	0	599	32	0	
1	0	0	0	0	509	509	0	622	32	0	
2	0	0	0	0	506	509	0	642	32	0	
3	0	0	0	0	517	510	0	651	32	0	
4	0	0	0	0	513	511	0	651	33	0	
5	0	0	0	0	509	512	0	638	32	0	
6	0	0	0	0	509	510	0	618	32	0	
7	0	0	0	0	505	514	0	600	33	0	
8	0	0	0	0	509	512	1	592	32	0	
9	0	0	0	0	509	514	0	568	32	0	
10	0	0	0	0	516	513	0	564	32	0	
11	0	0	0	0	513	515	0	566	32	0	
12	0	0	0	0	510	514	0	573	32	0	
13	0	0	0	0	504	514	0	587	32	0	
14	0	0	0	0	515	514	0	608	32	0	
15	0	0	0	0	518	513	0	627	33	0	
0	0	0	0	0	505	512	1	625	33	0	
1	0	0	0	0	505	511	0	614	32	0	
2	0	0	0	0	515	511	0	604	32	0	
3	0	0	0	0	504	512	0	597	32	0	
4	0	0	0	0	508	512	1	585	32	0	
5	0	0	0	0	507	512	0	581	32	0	
6	0	0	0	0	513	511	0	577	32	0	
7	0	0	0	0	511	513	0	567	32	0	
8	0	0	0	0	512	515	1	564	33	0	
9	0	0	0	0	511	514	0	570	33	0	
10	0	0	0	0	506	515	0	579	33	0	
11	0	0	0	0	502	515	0	584	32	0	
12	0	0	0	0	510	515	1	580	32	0	
13	0	0	0	0	516	513	0	567	32	0	
14	0	0	0	0	510	513	0	555	32	0	
15	0	0	0	0	516	514	0	544	32	0	
0	0	0	0	0	510	515	1	533	32	0	
1	0	0	0	0	512	513	0	523	32	0	
2	0	0	0	0	508	512	0	531	33	0	
3	0	0	0	0	513	511	0	548	33	0	
4	0	0	0	0	508	509	0	558	33	0	
5	0	0	0	0	504	509	0	565	33	0	
6	0	0	0	0	515	509	0	572	33	0	
7	0	0	0	0	508	511	0	567	32	0	
8	0	0	0	0	510	512	0	548	32	0	
9	0	0	0	0	511	513	0	540	32	0	
10	0	0	0	0	508	511	0	565	32	0	
11	0	0	0	0	504	513	0	567	32	0	
12	0	0	0	0	505	513	1	574	32	0	
13	0	0	0	0	516	512	0	593	32	0	
14	0	0	0	0	512	512	0	623	33	0	
15	0	0	0	0	510	512	0	655	33	0	
0	0	0	0	0	510	511	1	666	32	0	
1	0	0	0	0	513	510	0	649	32	0	
2	0	0	0	0	511	511	0	620	32	0	
3	0	0	0	0	510	510	0	605	32	0	
4	0	0	0	0	512	512	0	605	32	0	
5	0	0	0	0	508	513	0	613	32	0	
6	0	0	0	0	512	514	0	613	32	0	
7	0	0	0	0	515	514	0	608	32	0	
8	0	0	0	0	513	513	1	591	32	0	
9	0	0	0	0	508	514	0	577	32	0	
10	0	0	0	0	506	512	0	565	32	0	
11	0	0	0	0	510	512	0	541	32	0	
12	0	0	0	0	515	512	1	513	32	0	
13	0	0	0	0	506	512	0	499	32	0	
14	0	0	0	0	510	508	0	503	32	0	
15	0	0	0	0	509	511	0	512	32	0	
0	0	0	0	0	509	512	1	529	32	0	
1	0	0	0	0	514	511	0	544	32	0	
2	0	0	0	0	506	511	0	561	32	0	
3	0	0	0	0	502	511	0	579	32	0	
4	0	0	0	0	509	511	1	586	33	0	
5	0	0	0	0	510	513	0	579	32	0	
6	0	0	0	0	513	511	0	567	32	0	
7	0	0	0	0	522	512	0	558	32	0	
8	0	0	0	0	521	512	0	546	32	0	
9	0	0	0	0	520	511	0	533	32	0	
10	0	0	0	0	505	511	0	517	32	0	
11	0	0	0	0	502	512	0	512	32	0	
12	0	0	0	0	505	514	1	527	32	0	
13	0	0	0	0	515	512	0	542	32	0	
14	0	0	0	0	513	512	0	542	32	0	
15	0	0	0	0	509	513	0	540	32	0	
0	0	0	0	0	519	512	1	526	32	0	
1	0	0	0	0	508	510	0	521	32	0	
2	0	0	0	0	504	511	0	517	32	0	
3	0	0	0	0	513	513	0	510	32	0	
4	0	0	0	0	506	515	1	503	32	0	
5	0	0	0	0	511	514	0	500	32	0	
6	0	0	0	0	512	514	0	495	32	0	
7	0	0	0	0	509	513	0	496	32	0	
8	0	0	0	0	511	513	1	501	32	0	
9	0	0	0	0	515	513	0	504	32	0	
10	0	0	0	0	507	514	0	504	32	0	
11	0	0	0	0	507	514	0	512	32	0	
12	0	0	0	0	515	514	1	519	32	0	
13	0	0	0	0	508	511	0	527	32	0	
14	0	0	0	0	515	512	0	526	32	0	
15	0	0	0	0	511	512	0	524	32	0	
0	0	0	0	0	505	512	1	514	32	0	
1	0	0	0	0	509	511	0	494	32	0	
2	0	0	0	0	507	512	0	474	32	0	
3	0	0	0	0	509	511	0	467	32	0	
4	0	0	0	0	505	511	1	480	32	0	
5	0	0	0	0	505	510	0	520	32	0	
6	0	0	0	0	514	511	0	538	32	0	
7	0	0	0	0	511	511	0	561	33	0	
8	0	0	0	0	519	511	0	574	32	0	
9	0	0	0	0	512	512	0	577	32	0	
10	0	0	0	0	509	515	0	575	32	0	
11	0	0	0	0	501	515	0	571	32	0	
12	0	0	0	0	513	513	1	555	32	0	
13	0	0	0	0	513	512	0	542	32	0	
14	0	0	0	0	509	511	0	511	32	0	
15	0	0	0	0	515	515	0	475	32	0	
0	0	0	0	0	507	512	1	453	32	0	
1	0	0	0	0	508	512	0	456	32	0	
2	0	0	0	0	512	512	0	448	32	0	
3	0	0	0	0	510	514	0	454	32	0	
4	0	0	0	0	507	512	0	476	33	0	
5	0	0	0	0	508	512	0	473	32	0	
6	0	0	0	0	509	512	0	491	32	0	
7	0	0	0	0	510	513	0	512	32	0	
8	0	0	0	0	514	514	0	526	33	0	
9	0	0	0	0	509	512	0	533	32	0	
10	0	0	0	0	512	513	0	542	32	0	
11	0	0	0	0	510	512	0	563	32	0	
12	0	0	0	0	508	512	0	555	32	0	
13	0	0	0	0	518	512	0	543	32	0	
14	0	0	0	0	510	511	0	530	32	0	
15	0	0	0	0	512	513	0	527	32	0	
0	0	0	0	0	507	514	1	515	32	0	
1	0	0	0	0	508	512	0	503	32	0	
2	0	0	0	0	511	511	0	497	32	0	
3	0	0	0	0	507	511	0	507	32	0	
4	0	0	0	0	510	510	1	526	32	0	
5	0	0	0	0	507	511	0	542	32	0	
6	0	0	0	0	517	511	0	558	32	0	
7	0	0	0	0	514	512	0	574	32	0	
8	0	0	0	0	510	511	1	584	32	0	
9	0	0	0	0	511	510	0	590	32	0	
10	0	0	0	0	509	510	0	589	32	0	
11	0	0	0	0	508	512	0	590	32	0	
12	0	0	0	0	504	512	0	578	32	0	
13	0	0	0	0	496	512	0	566	32	0	
14	0	0	0	0	510	512	0	554	32	0	
15	0	0	0	0	512	512	0	538	32	0	
0	0	0	0	0	508	512	1	519	32	0	
1	0	0	0	0	512	512	0	512	32	0	
2	0	0	0	0	518	510	0	523	32	0	
3	0	0	0	0	511	512	0	537	32	0	
4	0	0	0	0	514	513	1	545	32	0	
5	0	0	0	0	511	512	0	553	32	0	
6	0	0	0	0	512	513	0	559	32	0	
7	0	0	0	0	513	513	0	568	32	0	
8	0	0	0	0	509	514	0	576	32	0	
9	0	0	0	0	504	515	0	578	32	0	
10	0	0	0	0	509	515	0	577	32	0	
11	0	0	0	0	511	516	0	582	32	0	
12	0	0	0	0	522	516	0	584	32	0	
13	0	0	0	0	506	514	0	598	32	0	
14	0	0	0	0	504	515	0	614	32	0	
15	0	0	0	0	511	513	0	632	32	0	
0	0	0	0	0	507	513	1	625	32	0	
1	0	0	0	0	513	513	0	603	32	0	
2	0	0	0	0	508	515	0	589	32	0	
3	0	0	0	0	507	514	0	577	32	0	
4	0	0	0	0	511	515	1	568	32	0	
5	0	0	0	0	504	513	0	580	32	0	
6	0	0	0	0	511	515	0	608	32	0	
7	0	0	0	0	509	515	0	637	32	0	
8	0	0	0	0	510	515	1	648	32	0	
9	0	0	0	0	509	514	0	669	32	0	
10	0	0	0	0	504	511	0	685	32	0	
11	0	0	0	0	515	513	0	690	32	0	
12	0	0	0	0	513	511	1	688	33	0	
13	0	0	0	0	511	512	0	676	32	0	
14	0	0	0	0	511	511	0	663	32	0	
15	0	0	0	0	511	512	0	648	32	0	
0	0	0	0	0	512	511	0	643	32	0	
1	0	0	0	0	517	512	0	636	32	0	
2	0	0	0	0	509	511	0	622	32	0	
3	0	0	0	0	505	511	0	613	32	0	
4	0	0	0	0	515	511	1	606	32	0	
5	0	0	0	0	508	512	0	605	32	0	
6	0	0	0	0	510	513	0	611	32	0	
7	0	0	0	0	512	513	0	618	32	0	
8	0	0	0	0	509	515	1	625	32	0	
9	0	0	0	0	510	512	0	632	32	0	
10	0	0	0	0	507	512	0	633	32	0	
11	0	0	0	0	507	512	0	625	32	0	
12	0	0	0	0	504	512	1	613	32	0	
13	0	0	0	0	513	512	0	604	32	0	
14	0	0	0	0	508	512	0	604	32	0	
15	0	0	0	0	506	512	0	601	32	0	
0	0	0	0	0	513	512	1	605	32	0	
1	0	0	0	0	515	510	0	609	32	0	
2	0	0	0	0	515	512	0	608	32	0	
3	0	0	0	0	512	512	0	600	32	0	
4	0	0	0	0	510	512	0	587	33	0	
5	0	0	0	0	511	513	0	577	32	0	
6	0	0	0	0	503	512	0	573	32	0	
7	0	0	0	0	513	513	0	567	32	0	
8	0	0	0	0	508	514	1	562	32	0	
9	0	0	0	0	517	513	0	563	32	0	
10	0	0	0	0	512	513	0	565	32	0	
11	0	0	0	0	508	513	0	562	32	0	
12	0	0	0	0	508	512	1	554	32	0	
13	0	0	0	0	508	510	0	551	32	0	
14	0	0	0	0	505	511	0	551	32	0	
15	0	0	0	0	513	513	0	562	32	0	
0	0	0	0	0	515	511	1	580	32	0	
1	0	0	0	0	505	512	0	615	32	0	
2	0	0	0	0	507	511	0	642	32	0	
3	0	0	0	0	511	513	0	645	32	0	
4	0	0	0	0	513	513	0	629	33	0	
5	0	0	0	0	514	514	0	616	32	0	
6	0	0	0	0	511	514	0	608	32	0	
7	0	0	0	0	512	513	0	604	32	0	
8	0	0	0	0	512	511	0	601	32	0	
9	0	0	0	0	509	510	0	601	32	0	
10	0	0	0	0	517	512	0	608	32	0	
11	0	0	0	0	506	513	0	621	32	0	
12	0	0	0	0	504	514	1	627	32	0	
13	0	0	0	0	509	513	0	638	32	0	
14	0	0	0	0	511	513	0	648	32	0	
15	0	0	0	0	508	514	0	659	32	0	
0	0	0	0	0	507	513	1	668	32	0	
1	0	0	0	0	513	514	0	679	32	0	
2	0	0	0	0	511	514	0	683	32	0	
3	0	0	0	0	511	515	0	678	32	0	
4	0	0	0	0	514	513	1	657	32	0	
5	0	0	0	0	512	512	0	633	32	0	
6	0	0	0	0	512	512	0	627	32	0	
7	0	0	0	0	500	511	0	635	32	0	
8	0	0	0	0	511	510	1	643	32	0	
9	0	0	0	0	516	508	0	647	32	0	
10	0	0	0	0	512	510	0	637	32	0	
11	0	0	0	0	503	513	0	627	32	0	
12	0	0	0	0	510	513	0	625	33	0	
13	0	0	0	0	514	513	0	635	32	0	
14	0	0	0	0	511	513	0	653	32	0	
15	0	0	0	0	510	514	0	672	32	0	
0	0	0	0	0	511	514	1	670	32	0	
1	0	0	0	0	504	511	0	654	32	0	
2	0	0	0	0	511	512	0	648	32	0	
3	0	0	0	0	511	512	0	647	32	0	
4	0	0	0	0	508	514	1	642	32	0	
5	0	0	0	0	509	514	0	635	32	0	
6	0	0	0	0	516	515	0	635	32	0	
7	0	0	0	0	506	514	0	651	32	0	
8	0	0	0	0	510	513	1	664	32	0	
9	0	0	0	0	519	513	0	675	32	0	
10	0	0	0	0	510	512	0	674	32	0	
11	0	0	0	0	509	512	0	660	32	0	
12	0	0	0	0	508	513	0	650	32	0	
13	0	0	0	0	519	514	0	648	32	0	
14	0	0	0	0	507	515	0	650	32	0	
15	0	0	0	0	508	515	0	653	32	0	
0	0	0	0	0	510	514	1	656	32	0	
1	0	0	0	0	511	513	0	660	32	0	
2	0	0	0	0	509	512	0	668	32	0	
3	0	0	0	0	514	512	0	679	32	0	
4	0	0	0	0	516	511	1	677	32	0	
5	0	0	0	0	505	509	0	672	32	0	
6	0	0	0	0	511	508	0	670	32	0	
7	0	0	0	0	507	511	0	666	32	0	
8	0	0	0	0	509	511	0	662	32	0	
9	0	0	0	0	504	512	0	672	32	0	
10	0	0	0	0	518	510	0	669	32	0	
11	0	0	0	0	511	511	0	670	32	0	
12	0	0	0	0	506	510	1	660	32	0	
13	0	0	0	0	502	511	0	653	32	0	
14	0	0	0	0	509	513	0	650	32	0	
15	0	0	0	0	510	512	0	649	32	0	
0	0	0	0	0	513	512	1	654	32	0	
1	0	0	0	0	507	512	0	659	32	0	
2	0	0	0	0	516	512	0	659	32	0	
3	0	0	0	0	514	511	0	660	32	0	
4	0	0	0	0	511	511	1	663	33	0	
5	0	0	0	0	505	511	0	666	32	0	
6	0	0	0	0	514	512	0	668	32	0	
7	0	0	0	0	508	512	0	667	32	0	
8	0	0	0	0	506	509	0	668	32	0	
9	0	0	0	0	507	508	0	671	32	0	
10	0	0	0	0	506	509	0	685	32	0	
11	0	0	0	0	512	511	0	687	32	0	
12	0	0	0	0	505	510	1	685	32	0	
13	0	0	0	0	515	508	0	681	32	0	
14	0	0	0	0	511	509	0	675	32	0	
15	0	0	0	0	510	510	0	675	32	0	
0	0	0	0	0	513	511	1	675	32	0	
1	0	0	0	0	512	514	0	682	32	0	
2	0	0	0	0	512	515	0	691	32	0	
3	0	0	0	0	504	515	0	692	32	0	
4	0	0	0	0	508	513	1	695	32	0	
5	0	0	0	0	508	514	0	704	32	0	
6	0	0	0	0	512	513	0	691	32	0	
7	0	0	0	0	507	513	0	662	32	0	
8	0	0	0	0	513	513	1	639	32	0	
9	0	0	0	0	508	515	0	644	32	0	
10	0	0	0	0	517	513	0	650	32	0	
11	0	0	0	0	505	512	0	670	32	0	
12	0	0	0	0	515	512	0	665	33	0	
13	0	0	0	0	501	514	0	661	32	0	
14	0	0	0	0	510	513	0	652	32	0	
15	0	0	0	0	515	513	0	648	33	0	
0	0	0	0	0	515	510	0	644	32	0	
1	0	0	0	0	513	511	0	652	32	0	
2	0	0	0	0	507	512	0	664	32	0	
3	0	0	0	0	511	512	0	672	32	0	
4	0	0	0	0	506	512	1	675	32	0	
5	0	0	0	0	504	511	0	680	32	0	
6	0	0	0	0	510	510	0	682	32	0	
7	0	0	0	0	508	512	0	674	33	0	
8	0	0	0	0	513	511	1	661	32	0	
9	0	0	0	0	514	511	0	647	33	0	
10	0	0	0	0	508	511	0	660	33	0	
11	0	0	0	0	515	511	0	655	32	0	
12	0	0	0	0	510	512	1	665	32	0	
13	0	0	0	0	507	510	0	672	32	0	
14	0	0	0	0	512	512	0	675	32	0	
15	0	0	0	0	513	514	0	679	32	0	
0	0	0	0	0	510	513	0	672	32	0	
1	0	0	0	0	505	512	0	661	32	0	
2	0	0	0	0	512	512	0	664	32	0	
3	0	0	0	0	513	510	0	647	32	0	
4	0	0	0	0	508	509	1	630	32	0	
5	0	0	0	0	511	508	0	618	32	0	
6	0	0	0	0	516	508	0	606	32	0	
7	0	0	0	0	509	510	0	605	32	0	
8	0	0	0	0	505	509	1	607	32	0	
9	0	0	0	0	510	510	0	607	32	0	
10	0	0	0	0	508	511	0	602	32	0	
11	0	0	0	0	510	511	0	601	32	0	
12	0	0	0	0	505	510	1	608	32	0	
13	0	0	0	0	512	508	0	617	32	0	
14	0	0	0	0	509	510	0	620	32	0	
15	0	0	0	0	508	510	0	622	32	0	
0	0	0	0	0	510	510	1	614	32	0	
1	0	0	0	0	510	511	0	625	32	0	
2	0	0	0	0	517	513	0	639	32	0	
3	0	0	0	0	508	516	0	651	32	0	
4	0	0	0	0	512	516	1	657	32	0	
5	0	0	0	0	506	515	0	660	32	0	
6	0	0	0	0	512	514	0	657	32	0	
7	0	0	0	0	518	514	0	651	33	0	
8	0	0	0	0	511	515	1	644	32	0	
9	0	0	0	0	505	513	0	647	33	0	
10	0	0	0	0	505	513	0	655	32	0	
11	0	0	0	0	510	513	0	675	32	0	
12	0	0	0	0	508	514	1	674	33	0	
13	0	0	0	0	510	516	0	684	32	0	
14	0	0	0	0	509	515	0	696	32	0	
15	0	0	0	0	512	515	0	703	32	0	
0	0	0	0	0	520	512	1	701	32	0	
1	0	0	0	0	515	511	0	689	32	0	
2	0	0	0	0	512	513	0	673	32	0	
3	0	0	0	0	506	514	0	671	32	0	
4	0	0	0	0	501	514	0	678	32	0	
5	0	0	0	0	506	516	0	684	32	0	
6	0	0	0	0	510	518	0	687	32	0	
7	0	0	0	0	513	516	0	697	32	0	
8	0	0	0	0	517	517	1	707	32	0	
9	0	0	0	0	510	516	0	716	32	0	
10	0	0	0	0	512	513	0	711	32	0	
11	0	0	0	0	510	514	0	690	32	0	
12	0	0	0	0	512	514	1	672	33	0	
13	0	0	0	0	500	512	0	664	32	0	
14	0	0	0	0	509	514	0	657	32	0	
15	0	0	0	0	513	515	0	658	32	0	
0	0	0	0	0	511	514	1	672	32	0	
1	0	0	0	0	507	513	0	680	32	0	
2	0	0	0	0	521	512	0	694	32	0	
3	0	0	0	0	511	515	0	684	32	0	
4	0	0	0	0	503	514	1	685	32	0	
5	0	0	0	0	514	512	0	697	33	0	
6	0	0	0	0	510	512	0	704	33	0	
7	0	0	0	0	507	512	0	683	32	0	
8	0	0	0	0	512	512	1	662	32	0	
9	0	0	0	0	512	510	0	650	32	0	
10	0	0	0	0	508	511	0	640	32	0	
11	0	0	0	0	510	513	0	632	32	0	
12	0	0	0	0	511	513	1	655	32	0	
13	0	0	0	0	505	513	0	664	32	0	
14	0	0	0	0	511	515	0	682	32	0	
15	0	0	0	0	512	516	0	694	32	0	
0	0	0	0	0	505	516	0	705	32	0	
1	0	0	0	0	511	515	0	722	32	0	
2	0	0	0	0	508	514	0	713	32	0	
3	0	0	0	0	505	516	0	719	32	0	
4	0	0	0	0	511	516	1	717	32	0	
5	0	0	0	0	513	515	0	702	32	0	
6	0	0	0	0	518	512	0	687	32	0	
7	0	0	0	0	517	514	0	693	32	0	
8	0	0	0	0	503	514	1	711	32	0	
9	0	0	0	0	504	512	0	733	32	0	
10	0	0	0	0	516	511	0	711	32	0	
11	0	0	0	0	514	511	0	702	32	0	
12	0	0	0	0	497	511	1	685	32	0	
13	0	0	0	0	508	511	0	667	32	0	
14	0	0	0	0	518	510	0	651	32	0	
15	0	0	0	0	510	512	0	644	33	0	
0	0	0	0	0	515	513	1	643	32	0	
1	0	0	0	0	509	512	0	643	32	0	
2	0	0	0	0	503	510	0	637	32	0	
3	0	0	0	0	504	511	0	636	32	0	
4	0	0	0	0	508	511	1	649	32	0	
5	0	0	0	0	510	512	0	655	32	0	
6	0	0	0	0	510	512	0	675	32	0	
7	0	0	0	0	512	512	0	691	32	0	
8	0	0	0	0	515	514	1	695	32	0	
9	0	0	0	0	513	512	0	701	32	0	
10	0	0	0	0	509	513	0	706	32	0	
11	0	0	0	0	512	514	0	696	32	0	
12	0	0	0	0	513	514	1	670	32	0	
13	0	0	0	0	512	513	0	632	32	0	
14	0	0	0	0	513	514	0	597	32	0	
15	0	0	0	0	511	514	0	573	32	0	
0	0	0	0	0	508	514	1	559	32	0	
1	0	0	0	0	502	515	0	558	32	0	
2	0	0	0	0	511	515	0	576	32	0	
3	0	0	0	0	506	514	0	610	32	0	
4	0	0	0	0	508	513	0	657	32	0	
5	0	0	0	0	513	513	0	714	32	0	
6	0	0	0	0	510	512	0	779	32	0	
7	0	0	0	0	513	514	0	845	32	0	
8	0	0	0	0	508	512	1	915	32	0	
9	0	0	0	0	510	510	0	986	32	0	
10	0	0	0	0	498	512	0	1018	32	0	
11	0	0	0	0	513	514	0	1018	32	0	
12	0	0	0	0	511	513	1	1018	32	0	
13	0	0	0	0	508	512	0	1018	32	0	
14	0	0	0	0	513	513	0	1018	32	0	
15	0	0	0	0	511	513	0	1018	32	0	
0	0	0	0	0	512	512	1	1019	32	0	
1	0	0	0	0	512	511	0	1018	32	0	
2	0	0	0	0	515	512	0	1018	32	0	
3	0	0	0	0	511	512	0	1018	32	0	
4	0	0	0	0	511	511	1	1018	32	0	
5	0	0	0	0	511	511	0	1018	32	0	
6	0	0	0	0	504	511	0	1018	32	0	
7	0	0	0	0	508	510	0	1018	32	0	
8	0	0	0	0	507	512	1	1019	32	0	
9	0	0	0	0	509	513	0	1019	32	0	
10	0	0	0	0	512	515	0	1018	32	0	
11	0	0	0	0	512	515	0	1018	32	0	
12	0	0	0	0	507	515	1	1019	32	0	
13	0	0	0	0	511	515	0	1019	32	0	
14	0	0	0	0	512	516	0	1018	32	0	
15	0	0	0	0	509	517	0	1018	32	0	
0	0	0	0	0	510	515	1	1019	32	0	
1	0	0	0	0	511	513	0	1018	32	0	
2	0	0	0	0	505	513	0	1018	32	0	
3	0	0	0	0	508	513	0	1018	32	0	
4	0	0	0	0	510	513	1	1019	32	0	
5	0	0	0	0	515	511	0	1019	32	0	
6	0	0	0	0	513	512	0	1018	32	0	
7	0	0	0	0	509	511	0	1018	32	0	
8	0	0	0	0	506	511	1	1019	32	0	
9	0	0	0	0	514	510	0	1019	33	0	
10	0	0	0	0	508	512	0	1019	33	0	
11	0	0	0	0	517	513	0	1018	32	0	
12	0	0	0	0	513	512	1	1019	32	0	
13	0	0	0	0	512	512	0	1019	32	0	
14	0	0	0	0	505	513	0	1018	32	0	
15	0	0	0	0	508	515	0	1018	32	0	
0	0	0	0	0	511	515	1	1019	32	0	
1	0	0	0	0	506	512	0	1019	32	0	
2	0	0	0	0	508	513	0	1019	32	0	
3	0	0	0	0	505	513	0	1018	32	0	
4	0	0	0	0	520	515	1	1019	32	0	
5	0	0	0	0	519	515	0	1018	32	0	
6	0	0	0	0	512	514	0	1018	32	0	
7	0	0	0	0	504	513	0	1018	32	0	
8	0	0	0	0	510	513	1	1019	32	0	
9	0	0	0	0	512	515	0	1019	32	0	
10	0	0	0	0	511	513	0	1018	32	0	
11	0	0	0	0	510	514	0	1018	32	0	
12	0	0	0	0	502	513	1	1019	32	0	
13	0	0	0	0	512	512	0	1018	32	0	
14	0	0	0	0	510	512	0	1018	32	0	
15	0	0	0	0	510	513	0	1018	33	0	
0	0	0	0	0	509	512	1	1018	32	0	
1	0	0	0	0	511	512	0	1019	32	0	
2	0	0	0	0	509	512	0	1018	33	0	
3	0	0	0	0	513	513	0	1018	32	0	
4	0	0	0	0	509	515	1	1019	32	0	
5	0	0	0	0	518	512	0	1019	32	0	
6	0	0	0	0	506	511	0	1018	32	0	
7	0	0	0	0	511	512	0	1018	32	0	
8	0	0	0	0	507	513	1	1019	32	0	
9	0	0	0	0	504	512	0	1018	32	0	
10	0	0	0	0	517	512	0	1018	32	0	
11	0	0	0	0	508	513	0	1018	33	0	
12	0	0	0	0	506	512	1	1018	33	0	
13	0	0	0	0	516	511	0	1018	33	0	
14	0	0	0	0	512	512	0	1018	32	0	
15	0	0	0	0	509	511	0	1018	32	0	
0	0	0	0	0	508	510	1	1019	32	0	
1	0	0	0	0	509	509	0	1019	32	0	
2	0	0	0	0	508	510	0	1018	32	0	
3	0	0	0	0	512	511	0	1018	32	0	
4	0	0	0	0	515	510	1	1019	32	0	
5	0	0	0	0	511	511	0	1019	32	0	
6	0	0	0	0	513	512	0	1018	33	0	
7	0	0	0	0	517	511	0	1018	33	0	
8	0	0	0	0	510	512	1	1018	32	0	
9	0	0	0	0	513	511	0	1019	32	0	
10	0	0	0	0	510	513	0	1018	32	0	
11	0	0	0	0	513	513	0	1018	32	0	
12	0	0	0	0	511	512	1	1018	32	0	
13	0	0	0	0	507	512	0	1018	32	0	
14	0	0	0	0	510	512	0	1019	32	0	
15	0	0	0	0	506	512	0	1018	32	0	
0	0	0	0	0	511	510	1	1019	33	0	
1	0	0	0	0	506	509	0	1018	33	0	
2	0	0	0	0	511	511	0	1018	32	0	
3	0	0	0	0	515	512	0	1018	32	0	
4	0	0	0	0	508	511	1	1019	33	0	
5	0	0	0	0	510	510	0	1018	32	0	
6	0	0	0	0	516	511	0	1018	32	0	
7	0	0	0	0	505	512	0	1018	32	0	
8	0	0	0	0	511	510	1	1019	32	0	
9	0	0	0	0	513	511	0	1018	32	0	
10	0	0	0	0	512	511	0	1018	32	0	
11	0	0	0	0	509	511	0	1018	32	0	
12	0	0	0	0	510	513	1	1019	32	0	
13	0	0	0	0	513	512	0	1018	32	0	
14	0	0	0	0	507	513	0	1018	32	0	
15	0	0	0	0	513	514	0	1018	32	0	
0	0	0	0	0	512	511	1	1018	32	0	
1	0	0	0	0	504	512	0	1018	32	0	
2	0	0	0	0	511	513	0	1018	32	0	
3	0	0	0	0	504	512	0	1018	32	0	
4	0	0	0	0	512	512	1	1019	32	0	
5	0	0	0	0	511	512	0	1018	32	0	
6	0	0	0	0	509	513	0	1018	32	0	
7	0	0	0	0	509	513	0	1018	32	0	
8	0	0	0	0	517	515	1	1019	32	0	
9	0	0	0	0	504	514	0	1018	32	0	
10	0	0	0	0	504	515	0	1018	32	0	
11	0	0	0	0	510	514	0	1018	32	0	
12	0	0	0	0	516	514	1	1018	32	0	
13	0	0	0	0	510	515	0	1018	32	0	
14	0	0	0	0	515	516	0	1018	32	0	
15	0	0	0	0	505	513	0	1018	32	0	
0	0	0	0	0	507	511	1	1019	32	0	
1	0	0	0	0	510	513	0	1018	32	0	
2	0	0	0	0	516	515	0	1018	32	0	
3	0	0	0	0	512	515	0	1018	32	0	
4	0	0	0	0	505	515	2	1019	32	0	
5	0	0	0	0	508	514	0	1018	32	0	
6	0	0	0	0	507	514	0	1018	32	0	
7	0	0	0	0	508	515	0	1018	32	0	
8	0	0	0	0	513	516	1	1019	32	0	
9	0	0	0	0	512	516	0	1018	32	0	
10	0	0	0	0	509	515	0	1018	32	0	
11	0	0	0	0	512	514	0	1018	32	0	
12	0	0	0	0	515	514	1	969	32	0	
13	0	0	0	0	514	513	0	937	32	0	
14	0	0	0	0	513	512	0	894	32	0	
15	0	0	0	0	511	512	0	849	32	0	
0	0	0	0	0	511	512	1	810	32	0	
1	0	0	0	0	510	512	0	774	32	0	
2	0	0	0	0	511	511	0	741	32	0	
3	0	0	0	0	505	511	0	708	32	0	
4	0	0	0	0	501	509	1	683	32	0	
5	0	0	0	0	511	510	0	668	32	0	
6	0	0	0	0	513	509	0	650	32	0	
7	0	0	0	0	507	510	0	632	32	0	
8	0	0	0	0	511	510	1	607	32	0	
9	0	0	0	0	510	511	0	571	32	0	
10	0	0	0	0	522	512	0	530	32	0	
11	0	0	0	0	504	513	0	488	32	0	
12	0	0	0	0	508	513	1	462	32	0	
13	0	0	0	0	513	512	0	455	32	0	
14	0	0	0	0	505	514	0	467	32	0	
15	0	0	0	0	514	513	0	470	32	0	
0	0	0	0	0	515	514	1	474	32	0	
1	0	0	0	0	510	512	0	486	32	0	
2	0	0	0	0	510	513	0	496	32	0	
3	0	0	0	0	506	514	0	505	32	0	
4	0	0	0	0	512	513	1	505	32	0	
5	0	0	0	0	512	512	0	502	32	0	
6	0	0	0	0	511	513	0	499	32	0	
7	0	0	0	0	513	512	0	494	32	0	
8	0	0	0	0	509	509	1	471	32	0	
9	0	0	0	0	510	509	0	441	32	0	
10	0	0	0	0	511	510	0	420	32	0	
11	0	0	0	0	513	511	0	412	32	0	
12	0	0	0	0	513	511	1	408	32	0	
13	0	0	0	0	507	511	0	403	32	0	
14	0	0	0	0	507	510	0	392	32	0	
15	0	0	0	0	510	512	0	379	32	0	
0	0	0	0	0	510	512	0	369	32	0	
1	0	0	0	0	513	512	0	361	32	0	
2	0	0	0	0	511	512	0	353	32	0	
3	0	0	0	0	508	511	0	339	32	0	
4	0	0	0	0	508	512	1	329	32	0	
5	0	0	0	0	505	511	0	333	32	0	
6	0	0	0	0	510	512	0	341	32	0	
7	0	0	0	0	511	513	0	342	32	0	
8	0	0	0	0	504	512	0	334	32	0	
9	0	0	0	0	511	512	0	316	32	0	
10	0	0	0	0	509	512	0	305	32	0	
11	0	0	0	0	511	511	0	276	32	0	
12	0	0	0	0	511	511	1	257	32	0	
13	0	0	0	0	507	509	0	248	32	0	
14	0	0	0	0	510	509	0	244	32	0	
15	0	0	0	0	508	510	0	241	32	0	
0	0	0	0	0	504	510	1	239	32	0	
1	0	0	0	0	507	511	0	237	32	0	
2	0	0	0	0	514	510	0	236	32	0	
3	0	0	0	0	514	511	0	217	32	0	
4	0	0	0	0	508	512	1	224	32	0	
5	0	0	0	0	509	513	0	244	32	0	
6	0	0	0	0	513	512	0	259	32	0	
7	0	0	0	0	509	511	0	266	32	0	
8	0	0	0	0	512	513	1	264	32	0	
9	0	0	0	0	511	511	0	263	32	0	
10	0	0	0	0	509	511	0	258	32	0	
11	0	0	0	0	515	514	0	252	32	0	
12	0	0	0	0	506	512	1	236	32	0	
13	0	0	0	0	506	512	0	217	32	0	
14	0	0	0	0	509	512	0	204	32	0	
15	0	0	0	0	516	515	0	195	32	0	
0	0	0	0	0	503	515	1	191	32	0	
1	0	0	0	0	508	513	0	199	32	0	
2	0	0	0	0	514	513	0	207	32	0	
3	0	0	0	0	508	512	0	203	32	0	
4	0	0	0	0	498	510	1	181	32	0	
5	0	0	0	0	508	510	0	152	32	0	
6	0	0	0	0	516	510	0	130	32	0	
7	0	0	0	0	515	512	0	135	32	0	
8	0	0	0	0	507	513	0	159	32	0	
9	0	0	0	0	514	512	0	194	32	0	
10	0	0	0	0	514	511	0	218	32	0	
11	0	0	0	0	508	511	0	227	32	0	
12	0	0	0	0	507	511	0	220	32	0	
13	0	0	0	0	511	510	0	211	32	0	
14	0	0	0	0	507	511	0	186	32	0	
15	0	0	0	0	512	511	0	174	32	0	
0	0	0	0	0	511	511	0	148	32	0	
1	0	0	0	0	506	512	0	143	32	0	
2	0	0	0	0	510	515	0	146	32	0	
3	0	0	0	0	501	513	0	147	32	0	
4	0	0	0	0	508	512	1	151	32	0	
5	0	0	0	0	511	510	0	158	32	0	
6	0	0	0	0	512	511	0	160	32	0	
7	0	0	0	0	514	513	0	151	32	0	
8	0	0	0	0	510	512	1	123	32	0	
9	0	0	0	0	510	512	0	100	32	0	
10	0	0	0	0	508	511	0	89	32	0	
11	0	0	0	0	513	512	0	102	32	0	
12	0	0	0	0	514	511	0	129	32	0	
13	0	0	0	0	506	512	0	152	32	0	
14	0	0	0	0	512	511	0	152	32	0	
15	0	0	0	0	510	512	0	135	32	0	
0	0	0	0	0	511	512	0	112	32	0	
1	0	0	0	0	506	513	0	90	32	0	
2	0	0	0	0	510	514	0	69	32	0	
3	0	0	0	0	507	515	0	71	32	0	
4	0	0	0	0	511	514	0	83	32	0	
5	0	0	0	0	510	515	0	96	32	0	
6	0	0	0	0	510	516	0	95	32	0	
7	0	0	0	0	513	514	0	79	32	0	
8	0	0	0	0	510	515	1	64	32	0	
9	0	0	0	0	507	514	0	69	32	0	
10	0	0	0	0	512	514	0	80	32	0	
11	0	0	0	0	510	513	0	96	32	0	
12	0	0	0	0	505	512	1	106	32	0	
13	0	0	0	0	505	511	0	124	32	0	
14	0	0	0	0	514	511	0	151	32	0	
15	0	0	0	0	507	512	0	177	32	0	
0	0	0	0	0	519	510	0	194	32	0	
1	0	0	0	0	504	507	0	199	32	0	
2	0	0	0	0	502	507	0	193	32	0	
3	0	0	0	0	513	509	0	179	32	0	
4	0	0	0	0	504	509	1	158	32	0	
5	0	0	0	0	513	509	0	145	32	0	
6	0	0	0	0	510	509	0	139	32	0	
7	0	0	0	0	507	511	0	154	32	0	
8	0	0	0	0	508	512	1	153	32	0	
9	0	0	0	0	509	512	0	161	32	0	
10	0	0	0	0	506	512	0	155	32	0	
11	0	0	0	0	511	513	0	161	32	0	
12	0	0	0	0	512	513	1	172	32	0	
13	0	0	0	0	511	510	0	176	32	0	
14	0	0	0	0	505	511	0	186	32	0	
15	0	0	0	0	512	512	0	194	32	0	
0	0	0	0	0	507	513	1	192	32	0	
1	0	0	0	0	511	511	0	189	32	0	
2	0	0	0	0	511	511	0	190	32	0	
3	0	0	0	0	513	512	0	182	32	0	
4	0	0	0	0	507	512	1	179	32	0	
5	0	0	0	0	515	510	0	184	32	0	
6	0	0	0	0	514	510	0	184	32	0	
7	0	0	0	0	505	511	0	186	32	0	
8	0	0	0	0	510	509	0	180	32	0	
9	0	0	0	0	509	510	0	159	32	0	
10	0	0	0	0	508	512	0	139	32	0	
11	0	0	0	0	507	512	0	131	32	0	
12	0	0	0	0	506	513	1	128	32	0	
13	0	0	0	0	505	510	0	140	32	0	
14	0	0	0	0	514	512	0	152	32	0	
15	0	0	0	0	507	512	0	162	32	0	
0	0	0	0	0	512	512	0	172	32	0	
1	0	0	0	0	512	512	0	173	32	0	
2	0	0	0	0	508	512	0	171	32	0	
3	0	0	0	0	515	512	0	168	32	0	
4	0	0	0	0	508	512	1	154	32	0	
5	0	0	0	0	504	511	0	145	32	0	
6	0	0	0	0	514	512	0	139	32	0	
7	0	0	0	0	507	513	0	133	32	0	
8	0	0	0	0	516	513	1	128	32	0	
9	0	0	0	0	515	514	0	130	32	0	
10	0	0	0	0	508	513	0	126	32	0	
11	0	0	0	0	502	515	0	142	32	0	
12	0	0	0	0	515	513	0	174	32	0	
13	0	0	0	0	516	513	0	192	32	0	
14	0	0	0	0	509	515	0	197	32	0	
15	0	0	0	0	511	512	0	203	32	0	
0	0	0	0	0	511	511	0	200	32	0	
1	0	0	0	0	509	512	0	190	32	0	
2	0	0	0	0	511	514	0	170	32	0	
3	0	0	0	0	508	514	0	151	32	0	
4	0	0	0	0	509	514	1	132	32	0	
5	0	0	0	0	516	510	0	117	32	0	
6	0	0	0	0	507	513	0	113	32	0	
7	0	0	0	0	510	511	0	97	32	0	
8	0	0	0	0	513	511	1	77	32	0	
9	0	0	0	0	512	510	0	58	32	0	
10	0	0	0	0	501	510	0	48	32	0	
11	0	0	0	0	508	510	0	46	32	0	
12	0	0	0	0	509	511	1	50	32	0	
13	0	0	0	0	515	510	0	58	32	0	
14	0	0	0	0	512	512	0	62	32	0	
15	0	0	0	0	507	512	0	61	32	0	
0	0	0	0	0	516	512	0	59	32	0	
1	0	0	0	0	509	511	0	54	32	0	
2	0	0	0	0	507	511	0	54	32	0	
3	0	0	0	0	507	511	0	49	32	0	
4	0	0	0	0	510	510	0	43	32	0	
5	0	0	0	0	508	509	0	43	32	0	
6	0	0	0	0	511	508	0	46	32	0	
7	0	0	0	0	512	508	0	42	32	0	
8	0	0	0	0	509	511	1	32	32	0	
9	0	0	0	0	511	510	0	32	32	0	
10	0	0	0	0	516	510	0	24	32	0	
11	0	0	0	0	510	510	0	11	32	0	
12	0	0	0	0	508	509	0	3	32	0	
13	0	0	0	0	510	508	0	9	32	0	
14	0	0	0	0	507	511	0	20	32	0	
15	0	0	0	0	510	512	0	41	32	0	
0	0	0	0	0	512	512	1	66	32	0	
1	0	0	0	0	517	513	0	76	32	0	
2	0	0	0	0	508	512	0	66	32	0	
3	0	0	0	0	507	513	0	39	32	0	
4	0	0	0	0	509	515	1	14	32	0	
5	0	0	0	0	505	514	0	0	32	0	
6	0	0	0	0	508	513	0	0	32	0	
7	0	0	0	0	513	513	0	0	32	0	
8	0	0	0	0	510	513	0	0	32	0	
9	0	0	0	0	505	514	0	0	32	0	
10	0	0	0	0	510	515	0	0	32	0	
11	0	0	0	0	506	514	0	0	32	0	
12	0	0	0	0	507	514	1	0	32	0	
13	0	0	0	0	515	512	0	41	32	0	
14	0	0	0	0	511	514	0	47	32	0	
15	0	0	0	0	504	513	0	49	32	0	
0	0	0	0	0	507	512	1	44	32	0	
1	0	0	0	0	506	511	0	37	32	0	
2	0	0	0	0	507	512	0	31	32	0	
3	0	0	0	0	505	512	0	33	32	0	
4	0	0	0	0	518	512	1	36	32	0	
5	0	0	0	0	513	512	0	35	32	0	
6	0	0	0	0	511	510	0	26	32	0	
7	0	0	0	0	512	511	0	7	32	0	
8	0	0	0	0	507	513	1	0	32	0	
9	0	0	0	0	506	511	0	0	32	0	
10	0	0	0	0	510	509	0	0	32	0	
11	0	0	0	0	507	510	0	0	32	0	
12	0	0	0	0	506	509	1	0	32	0	
13	0	0	0	0	511	509	0	0	32	0	
14	0	0	0	0	516	509	0	0	32	0	
15	0	0	0	0	516	511	0	0	32	0	
0	0	0	0	0	508	510	0	0	32	0	
1	0	0	0	0	509	510	0	0	32	0	
2	0	0	0	0	510	511	0	0	32	0	
3	0	0	0	0	508	513	0	0	32	0	
4	0	0	0	0	507	512	1	0	32	0	
5	0	0	0	0	512	510	0	0	32	0	
6	0	0	0	0	509	511	0	0	32	0	
7	0	0	0	0	509	511	0	0	32	0	
8	0	0	0	0	513	512	1	0	32	0	
9	0	0	0	0	512	513	0	0	32	0	
10	0	0	0	0	511	513	0	0	32	0	
11	0	0	0	0	505	515	0	0	32	0	
12	0	0	0	0	508	516	1	0	32	0	
13	0	0	0	0	511	513	0	0	32	0	
14	0	0	0	0	511	513	0	0	32	0	
15	0	0	0	0	512	512	0	0	32	0	
0	0	0	0	0	515	510	1	0	32	0	
1	0	0	0	0	503	510	0	0	32	0	
2	0	0	0	0	507	510	0	0	32	0	
3	0	0	0	0	508	512	0	0	32	0	
4	0	0	0	0	513	512	0	0	32	0	
5	0	0	0	0	514	511	0	0	32	0	
6	0	0	0	0	512	512	0	0	32	0	
7	0	0	0	0	508	512	0	0	32	0	
8	0	0	0	0	511	513	1	0	32	0	
9	0	0	0	0	509	513	0	0	32	0	
10	0	0	0	0	513	514	0	0	32	0	
11	0	0	0	0	515	513	0	0	32	0	
12	0	0	0	0	510	512	1	0	32	0	
13	0	0	0	0	513	510	0	0	32	0	
14	0	0	0	0	497	510	0	0	32	0	
15	0	0	0	0	509	510	0	0	32	0	
0	0	0	0	0	506	510	0	0	32	0	
1	0	0	0	0	514	511	0	0	32	0	
2	0	0	0	0	515	512	0	0	32	0	
3	0	0	0	0	508	514	0	0	32	0	
4	0	0	0	0	512	513	0	0	32	0	
5	0	0	0	0	511	513	0	10	32	0	
6	0	0	0	0	511	512	0	3	32	0	
7	0	0	0	0	512	513	0	0	32	0	
8	0	0	0	0	508	512	0	0	32	0	
9	0	0	0	0	505	511	0	0	32	0	
10	0	0	0	0	508	513	0	0	32	0	
11	0	0	0	0	511	514	0	0	32	0	
12	0	0	0	0	516	512	0	0	32	0	
13	0	0	0	0	514	512	0	0	32	0	
14	0	0	0	0	512	510	0	0	32	0	
15	0	0	0	0	511	510	0	0	32	0	
0	0	0	0	0	510	509	0	0	32	0	
1	0	0	0	0	511	511	0	0	32	0	
2	0	0	0	0	515	511	0	0	32	0	
3	0	0	0	0	509	511	0	0	32	0	
4	0	0	0	0	510	512	1	79	32	0	
5	0	0	0	0	502	511	0	82	32	0	
6	0	0	0	0	510	511	0	58	32	0	
7	0	0	0	0	509	514	0	51	32	0	
8	0	0	0	0	509	514	0	65	32	0	
9	0	0	0	0	508	514	0	84	32	0	
10	0	0	0	0	512	515	0	95	32	0	
11	0	0	0	0	511	515	0	93	32	0	
12	0	0	0	0	509	513	0	67	32	0	
13	0	0	0	0	514	512	0	42	32	0	
14	0	0	0	0	508	512	0	37	32	0	
15	0	0	0	0	512	512	0	44	32	0	
0	0	0	0	0	508	513	0	47	32	0	
1	0	0	0	0	510	513	0	49	32	0	
2	0	0	0	0	509	512	0	41	32	0	
3	0	0	0	0	508	512	0	17	32	0	
4	0	0	0	0	508	511	0	0	32	0	
5	0	0	0	0	514	510	0	0	32	0	
6	0	0	0	0	512	510	0	0	32	0	
7	0	0	0	0	511	510	0	0	32	0	
8	0	0	0	0	504	508	0	0	32	0	
9	0	0	0	0	506	508	0	0	32	0	
10	0	0	0	0	512	509	0	0	32	0	
11	0	0	0	0	511	510	0	0	32	0	
12	0	0	0	0	511	510	0	0	32	0	
13	0	0	0	0	515	510	0	21	32	0	
14	0	0	0	0	514	511	0	14	32	0	
15	0	0	0	0	510	512	0	0	32	0	
0	0	0	0	0	507	509	0	0	32	0	
1	0	0	0	0	507	510	0	0	32	0	
2	0	0	0	0	512	510	0	0	32	0	
3	0	0	0	0	503	509	0	0	32	0	
4	0	0	0	0	512	508	1	0	32	0	
5	0	0	0	0	510	509	0	0	32	0	
6	0	0	0	0	505	510	0	57	32	0	
7	0	0	0	0	515	510	0	66	32	0	
8	0	0	0	0	511	509	0	51	32	0	
9	0	0	0	0	508	508	0	28	32	0	
10	0	0	0	0	511	510	0	3	32	0	
11	0	0	0	0	507	512	0	0	32	0	
12	0	0	0	0	512	513	1	0	32	0	
13	0	0	0	0	509	514	0	0	32	0	
14	0	0	0	0	508	514	0	0	32	0	
15	0	0	0	0	511	514	0	0	32	0	
0	0	0	0	0	512	513	1	0	32	0	
1	0	0	0	0	516	512	0	0	32	0	
2	0	0	0	0	506	511	0	0	32	0	
3	0	0	0	0	511	513	0	0	32	0	
4	0	0	0	0	510	516	1	0	32	0	
5	0	0	0	0	504	515	0	0	32	0	
6	0	0	0	0	512	516	0	0	32	0	
7	0	0	0	0	506	517	0	0	32	0	
8	0	0	0	0	516	515	1	0	32	0	
9	0	0	0	0	510	515	0	0	32	0	
10	0	0	0	0	508	515	0	0	32	0	
11	0	0	0	0	512	514	0	0	32	0	
12	0	0	0	0	516	514	1	0	32	0	
13	0	0	0	0	510	512	0	0	32	0	
14	0	0	0	0	510	513	0	0	32	0	
15	0	0	0	0	513	511	0	0	32	0	
0	0	0	0	0	505	511	0	0	32	0	
1	0	0	0	0	511	511	0	0	32	0	
2	0	0	0	0	508	512	0	0	32	0	
3	0	0	0	0	504	513	0	0	32	0	
4	0	0	0	0	510	514	1	0	32	0	
5	0	0	0	0	506	511	0	0	32	0	
6	0	0	0	0	507	510	0	0	32	0	
7	0	0	0	0	510	513	0	0	32	0	
8	0	0	0	0	516	513	1	0	32	0	
9	0	0	0	0	505	512	0	0	32	0	
10	0	0	0	0	501	511	0	0	32	0	
11	0	0	0	0	509	512	0	0	32	0	
12	0	0	0	0	515	511	1	0	32	0	
13	0	0	0	0	510	510	0	0	32	0	
14	0	0	0	0	513	509	0	0	32	0	
15	0	0	0	0	511	510	0	0	32	0	
0	0	0	0	0	514	512	1	0	32	0	
1	0	0	0	0	515	512	0	0	32	0	
2	0	0	0	0	508	512	0	0	32	0	
3	0	0	0	0	505	512	0	0	32	0	
4	0	0	0	0	504	510	0	0	32	0	
5	0	0	0	0	514	512	0	0	32	0	
6	0	0	0	0	509	511	0	0	32	0	
7	0	0	0	0	513	513	0	0	32	0	
8	0	0	0	0	514	515	1	0	32	0	
9	0	0	0	0	505	514	0	0	32	0	
10	0	0	0	0	508	514	0	0	32	0	
11	0	0	0	0	511	513	0	0	32	0	
12	0	0	0	0	508	512	0	0	32	0	
13	0	0	0	0	512	511	0	0	32	0	
14	0	0	0	0	509	511	0	0	32	0	
15	0	0	0	0	511	511	0	0	32	0	
0	0	0	0	0	514	512	1	0	33	0	
1	0	0	0	0	505	512	0	0	32	0	
2	0	0	0	0	511	512	0	0	32	0	
3	0	0	0	0	509	514	0	0	32	0	
4	0	0	0	0	509	513	1	0	32	0	
5	0	0	0	0	512	511	0	0	32	0	
6	0	0	0	0	511	512	0	0	32	0	
7	0	0	0	0	513	511	0	0	32	0	
8	0	0	0	0	510	510	1	0	32	0	
9	0	0	0	0	506	509	0	0	32	0	
10	0	0	0	0	507	511	0	0	32	0	
11	0	0	0	0	508	510	0	0	32	0	
12	0	0	0	0	512	511	1	0	32	0	
13	0	0	0	0	509	509	0	0	32	0	
14	0	0	0	0	510	509	0	0	32	0	
15	0	0	0	0	513	511	0	0	32	0	
0	0	0	0	0	507	513	1	0	32	0	
1	0	0	0	0	508	511	0	0	32	0	
2	0	0	0	0	511	511	0	0	32	0	
3	0	0	0	0	508	512	0	0	32	0	
4	0	0	0	0	506	512	1	0	32	0	
5	0	0	0	0	508	509	0	0	32	0	
6	0	0	0	0	518	510	0	0	32	0	
7	0	0	0	0	509	511	0	0	32	0	
8	0	0	0	0	510	512	1	0	32	0	
9	0	0	0	0	507	508	0	0	32	0	
10	0	0	0	0	504	507	0	0	32	0	
11	0	0	0	0	505	508	0	0	32	0	
12	0	0	0	0	515	508	0	0	32	0	
13	0	0	0	0	513	510	0	0	32	0	
14	0	0	0	0	512	510	0	0	32	0	
15	0	0	0	0	509	512	0	0	32	0	
0	0	0	0	0	510	511	1	0	32	0	
1	0	0	0	0	503	509	0	0	32	0	
2	0	0	0	0	509	510	0	0	32	0	
3	0	0	0	0	513	509	0	0	32	0	
4	0	0	0	0	515	510	1	0	32	0	
5	0	0	0	0	508	510	0	0	32	0	
6	0	0	0	0	504	510	0	0	32	0	
7	0	0	0	0	511	510	0	0	32	0	
8	0	0	0	0	512	512	1	0	32	0	
9	0	0	0	0	510	511	0	0	32	0	
10	0	0	0	0	512	511	0	25	32	0	
11	0	0	0	0	508	511	0	31	32	0	
12	0	0	0	0	506	510	0	35	32	0	
13	0	0	0	0	511	511	0	47	32	0	
14	0	0	0	0	505	512	0	64	32	0	
15	0	0	0	0	512	513	0	87	32	0	
0	0	0	0	0	513	512	1	106	32	0	
1	0	0	0	0	505	510	0	116	32	0	
2	0	0	0	0	502	510	0	111	32	0	
3	0	0	0	0	514	509	0	105	32	0	
4	0	0	0	0	514	509	1	105	32	0	
5	0	0	0	0	513	509	0	112	32	0	
6	0	0	0	0	513	511	0	114	32	0	
7	0	0	0	0	507	512	0	124	32	0	
8	0	0	0	0	501	511	1	135	32	0	
9	0	0	0	0	509	511	0	143	32	0	
10	0	0	0	0	507	513	0	135	32	0	
11	0	0	0	0	520	514	0	127	32	0	
12	0	0	0	0	510	514	1	123	32	0	
13	0	0	0	0	508	511	0	113	32	0	
14	0	0	0	0	511	512	0	93	32	0	
15	0	0	0	0	506	513	0	79	32	0	
0	0	0	0	0	510	513	0	78	32	0	
1	0	0	0	0	508	515	0	92	32	0	
2	0	0	0	0	514	514	0	108	32	0	
3	0	0	0	0	516	514	0	130	32	0	
4	0	0	0	0	512	513	1	152	32	0	
5	0	0	0	0	512	512	0	173	32	0	
6	0	0	0	0	511	512	0	195	32	0	
7	0	0	0	0	509	513	0	210	32	0	
8	0	0	0	0	511	512	0	221	32	0	
9	0	0	0	0	501	511	0	233	32	0	
10	0	0	0	0	501	511	0	239	32	0	
11	0	0	0	0	511	511	0	238	32	0	
12	0	0	0	0	507	513	1	244	32	0	
13	0	0	0	0	514	513	0	263	32	0	
14	0	0	0	0	505	514	0	268	32	0	
15	0	0	0	0	512	515	0	264	32	0	
0	0	0	0	0	512	517	1	261	32	0	
1	0	0	0	0	512	515	0	239	32	0	
2	0	0	0	0	514	515	0	203	32	0	
3	0	0	0	0	509	515	0	198	32	0	
4	0	0	0	0	513	514	0	206	32	0	
5	0	0	0	0	513	513	0	230	32	0	
6	0	0	0	0	510	514	0	249	32	0	
7	0	0	0	0	512	515	0	273	32	0	
8	0	0	0	0	509	512	0	286	33	0	
9	0	0	0	0	512	512	0	291	33	0	
10	0	0	0	0	503	511	0	290	33	0	
11	0	0	0	0	506	511	0	281	33	0	
12	0	0	0	0	510	509	0	258	33	0	
13	0	0	0	0	513	508	0	242	33	0	
14	0	0	0	0	511	508	0	224	33	0	
15	0	0	0	0	509	510	0	201	33	0	
0	0	0	0	0	513	511	0	182	33	0	
1	0	0	0	0	510	512	0	187	33	0	
2	0	0	0	0	509	513	0	218	33	0	
3	0	0	0	0	507	514	0	261	33	0	
4	0	0	0	0	507	514	1	287	33	0	
5	0	0	0	0	510	513	0	290	33	0	
6	0	0	0	0	518	510	0	287	33	0	
7	0	0	0	0	512	513	0	291	33	0	
8	0	0	0	0	514	511	1	288	32	0	
9	0	0	0	0	512	510	0	291	33	0	
10	0	0	0	0	513	510	0	300	32	0	
11	0	0	0	0	508	513	0	305	33	0	
12	0	0	0	0	509	512	0	303	33	0	
13	0	0	0	0	510	512	0	307	33	0	
14	0	0	0	0	511	511	0	312	33	0	
15	0	0	0	0	510	511	0	320	33	0	
0	0	0	0	0	518	512	1	345	32	0	
1	0	0	0	0	500	509	0	366	32	0	
2	0	0	0	0	508	512	0	386	33	0	
3	0	0	0	0	506	512	0	414	32	0	
4	0	0	0	0	510	513	1	431	32	0	
5	0	0	0	0	514	513	0	450	32	0	
6	0	0	0	0	508	513	0	468	32	0	
7	0	0	0	0	513	512	0	443	32	0	
8	0	0	0	0	511	512	1	374	32	0	
9	0	0	0	0	510	513	0	293	32	0	
10	0	0	0	0	510	512	0	212	32	0	
11	0	0	0	0	506	512	0	137	32	0	
12	0	0	0	0	513	511	0	67	32	0	
13	0	0	0	0	510	512	0	18	32	0	
14	0	0	0	0	505	512	0	0	32	0	
15	0	0	0	0	511	512	0	0	32	0	
0	0	0	0	0	505	512	1	0	32	0	
1	0	0	0	0	511	511	0	0	32	0	
2	0	0	0	0	506	513	0	0	32	0	
3	0	0	0	0	507	513	0	0	32	0	
4	0	0	0	0	509	511	0	0	32	0	
5	0	0	0	0	511	512	0	0	32	0	
6	0	0	0	0	512	512	0	0	32	0	
7	0	0	0	0	519	510	0	0	32	0	
8	0	0	0	0	511	511	1	0	32	0	
9	0	0	0	0	509	509	0	0	32	0	
10	0	0	0	0	506	511	0	0	32	0	
11	0	0	0	0	506	510	0	0	32	0	
12	0	0	0	0	512	510	0	0	32	0	
13	0	0	0	0	513	509	0	0	32	0	
14	0	0	0	0	507	510	0	0	32	0	
15	0	0	0	0	505	510	0	0	32	0	
0	0	0	0	0	511	512	0	0	32	0	
1	0	0	0	0	515	511	0	0	32	0	
2	0	0	0	0	512	511	0	0	32	0	
3	0	0	0	0	516	510	0	0	32	0	
4	0	0	0	0	510	511	0	0	32	0	
5	0	0	0	0	509	510	0	0	32	0	
6	0	0	0	0	511	511	0	0	32	0	
7	0	0	0	0	511	512	0	0	32	0	
8	0	0	0	0	508	512	0	0	32	0	
9	0	0	0	0	501	509	0	0	32	0	
10	0	0	0	0	505	511	0	0	32	0	
11	0	0	0	0	515	512	0	0	32	0	
12	0	0	0	0	509	512	1	0	32	0	
13	0	0	0	0	518	512	0	0	32	0	
14	0	0	0	0	511	511	0	0	32	0	
15	0	0	0	0	513	510	0	0	32	0	
0	0	0	0	0	513	511	1	0	32	0	
1	0	0	0	0	506	512	0	0	32	0	
2	0	0	0	0	510	513	0	0	32	0	
3	0	0	0	0	511	516	0	0	33	0	
4	0	0	0	0	512	516	1	0	33	0	
5	0	0	0	0	516	514	0	0	33	0	
6	0	0	0	0	511	513	0	0	32	0	
7	0	0	0	0	512	513	0	0	32	0	
8	0	0	0	0	511	512	0	0	32	0	
9	0	0	0	0	504	513	0	0	32	0	
10	0	0	0	0	505	515	0	0	32	0	
11	0	0	0	0	514	514	0	0	32	0	
12	0	0	0	0	508	512	1	0	32	0	
13	0	0	0	0	502	512	0	0	32	0	
14	0	0	0	0	508	514	0	0	32	0	
15	0	0	0	0	509	514	0	0	32	0	
0	0	0	0	0	507	511	0	0	32	0	
1	0	0	0	0	513	509	0	0	32	0	
2	0	0	0	0	519	512	0	0	32	0	
3	0	0	0	0	517	513	0	0	32	0	
4	0	0	0	0	510	513	0	0	32	0	
5	0	0	0	0	509	513	0	0	32	0	
6	0	0	0	0	507	513	0	0	32	0	
7	0	0	0	0	510	514	0	0	32	0	
8	0	0	0	0	508	514	0	0	32	0	
9	0	0	0	0	505	512	0	0	32	0	
10	0	0	0	0	515	512	0	0	32	0	
11	0	0	0	0	512	513	0	0	32	0	
12	0	0	0	0	514	515	1	0	32	0	
13	0	0	0	0	507	512	0	0	32	0	
14	0	0	0	0	508	513	0	0	32	0	
15	0	0	0	0	509	511	0	0	32	0	
0	0	0	0	0	510	510	0	0	32	0	
1	0	0	0	0	515	513	0	0	32	0	
2	0	0	0	0	515	514	0	0	32	0	
3	0	0	0	0	508	512	0	0	32	0	
4	0	0	0	0	515	512	0	0	33	0	
5	0	0	0	0	514	510	0	0	33	0	
6	0	0	0	0	513	510	0	0	33	0	
7	0	0	0	0	514	512	0	0	33	0	
8	0	0	0	0	506	511	1	0	33	0	
9	0	0	0	0	508	511	0	0	33	0	
10	0	0	0	0	514	511	0	0	33	0	
11	0	0	0	0	506	513	0	0	33	0	
12	0	0	0	0	509	513	0	0	33	0	
13	0	0	0	0	516	513	0	0	33	0	
14	0	0	0	0	514	510	0	0	33	0	
15	0	0	0	0	507	511	0	0	32	0	
0	0	0	0	0	510	511	1	0	33	0	
1	0	0	0	0	521	509	0	0	32	0	
2	0	0	0	0	502	510	0	0	32	0	
3	0	0	0	0	507	510	0	0	32	0	
4	0	0	0	0	511	509	1	0	32	0	
5	0	0	0	0	508	509	0	0	32	0	
6	0	0	0	0	509	511	0	0	32	0	
7	0	0	0	0	510	513	0	0	32	0	
8	0	0	0	0	509	516	1	0	32	0	
9	0	0	0	0	518	515	0	0	31	0	
10	0	0	0	0	518	515	0	0	31	0	
11	0	0	0	0	508	515	0	0	31	0	
12	0	0	0	0	513	514	1	0	31	0	
13	0	0	0	0	507	512	0	0	31	0	
14	0	0	0	0	506	513	0	0	31	0	
15	0	0	0	0	505	514	0	0	32	0	
0	0	0	0	0	511	513	1	0	32	0	
1	0	0	0	0	511	513	0	0	32	0	
2	0	0	0	0	512	511	0	0	32	0	
3	0	0	0	0	513	510	0	0	32	0	
4	0	0	0	0	507	512	0	0	32	0	
5	0	0	0	0	514	511	0	0	32	0	
6	0	0	0	0	511	510	0	0	32	0	
7	0	0	0	0	502	512	0	0	33	0	
8	0	0	0	0	517	513	0	0	33	0	
9	0	0	0	0	508	512	0	0	33	0	
10	0	0	0	0	515	515	0	0	33	0	
11	0	0	0	0	510	513	0	0	33	0	
12	0	0	0	0	511	513	0	0	33	0	
13	0	0	0	0	510	511	0	0	33	0	
14	0	0	0	0	505	509	0	0	33	0	
15	0	0	0	0	506	511	0	0	33	0	
0	0	0	0	0	508	511	0	0	32	0	
1	0	0	0	0	508	512	0	0	32	0	
2	0	0	0	0	512	515	0	0	32	0	
3	0	0	0	0	504	513	0	0	32	0	
4	0	0	0	0	511	516	1	0	33	0	
5	0	0	0	0	508	515	0	0	33	0	
6	0	0	0	0	515	515	0	0	33	0	
7	0	0	0	0	507	513	0	0	33	0	
8	0	0	0	0	510	513	0	0	33	0	
9	0	0	0	0	507	515	0	0	33	0	
10	0	0	0	0	518	512	0	0	33	0	
11	0	0	0	0	512	514	0	0	33	0	
12	0	0	0	0	513	513	0	0	34	0	
13	0	0	0	0	506	512	0	0	34	0	
14	0	0	0	0	513	514	0	0	34	0	
15	0	0	0	0	508	513	0	0	33	0	
0	0	0	0	0	509	514	1	0	33	0	
1	0	0	0	0	504	511	0	0	33	0	
2	0	0	0	0	513	513	0	0	33	0	
3	0	0	0	0	516	514	0	0	33	0	
4	0	0	0	0	503	513	0	0	32	0	
5	0	0	0	0	509	515	0	0	32	0	
6	0	0	0	0	513	514	0	0	32	0	
7	0	0	0	0	511	513	0	0	32	0	
8	0	0	0	0	508	513	1	0	32	0	
9	0	0	0	0	512	511	0	0	32	0	
10	0	0	0	0	510	513	0	0	32	0	
11	0	0	0	0	510	513	0	0	32	0	
12	0	0	0	0	503	512	1	0	32	0	
13	0	0	0	0	510	511	0	0	32	0	
14	0	0	0	0	512	511	0	0	31	0	
15	0	0	0	0	499	512	0	0	31	0	
0	0	0	0	0	515	511	1	0	32	0	
1	0	0	0	0	510	509	0	0	32	0	
2	0	0	0	0	505	511	0	0	32	0	
3	0	0	0	0	509	511	0	0	32	0	
4	0	0	0	0	510	511	1	0	32	0	
5	0	0	0	0	511	511	0	0	32	0	
6	0	0	0	0	509	511	0	0	32	0	
7	0	0	0	0	509	511	0	0	32	0	
8	0	0	0	0	510	509	0	0	32	0	
9	0	0	0	0	515	509	0	0	33	0	
10	0	0	0	0	507	510	0	0	33	0	
11	0	0	0	0	511	511	0	0	33	0	
12	0	0	0	0	516	511	1	0	33	0	
13	0	0	0	0	507	511	0	0	33	0	
14	0	0	0	0	514	511	0	0	33	0	
15	0	0	0	0	506	510	0	0	33	0	
0	0	0	0	0	510	510	0	0	34	0	
1	0	0	0	0	508	510	0	0	33	0	
2	0	0	0	0	509	510	0	0	33	0	
3	0	0	0	0	509	511	0	0	33	0	
4	0	0	0	0	516	510	0	0	33	0	
5	0	0	0	0	517	511	0	0	33	0	
6	0	0	0	0	512	511	0	0	34	0	
7	0	0	0	0	516	513	0	0	34	0	
8	0	0	0	0	511	513	0	0	33	0	
9	0	0	0	0	506	515	0	0	33	0	
10	0	0	0	0	513	514	0	0	33	0	
11	0	0	0	0	506	514	0	0	33	0	
12	0	0	0	0	511	514	1	0	33	0	
13	0	0	0	0	503	513	0	0	33	0	
14	0	0	0	0	505	514	0	0	33	0	
15	0	0	0	0	504	513	0	0	33	0	
0	0	0	0	0	507	512	0	0	32	0	
1	0	0	0	0	514	514	0	0	32	0	
2	0	0	0	0	508	514	0	0	32	0	
3	0	0	0	0	518	514	0	0	32	0	
4	0	0	0	0	513	514	1	0	32	0	
5	0	0	0	0	515	513	0	0	32	0	
6	0	0	0	0	508	511	0	65	33	0	
7	0	0	0	0	519	511	0	151	32	0	
8	0	0	0	0	519	510	0	241	32	0	
9	0	0	0	0	508	511	0	307	32	0	
10	0	0	0	0	506	512	0	374	32	0	
11	0	0	0	0	509	512	0	425	32	0	
12	0	0	0	0	509	514	1	492	32	0	
13	0	0	0	0	513	512	0	565	32	0	
14	0	0	0	0	503	512	0	630	32	0	
15	0	0	0	0	503	513	0	688	32	0	
0	0	0	0	0	509	512	0	731	32	0	
1	0	0	0	0	511	513	0	780	32	0	
2	0	0	0	0	513	512	0	835	32	0	
3	0	0	0	0	511	513	0	876	32	0	
4	0	0	0	0	510	513	0	906	32	0	
5	0	0	0	0	510	514	0	927	32	0	
6	0	0	0	0	508	514	0	956	32	0	
7	0	0	0	0	501	513	0	994	32	0	
8	0	0	0	0	501	511	0	1018	32	0	
9	0	0	0	0	512	513	0	1018	32	0	
10	0	0	0	0	508	512	0	1018	32	0	
11	0	0	0	0	510	515	0	1018	32	0	
12	0	0	0	0	518	515	1	1019	33	0	
13	0	0	0	0	508	512	0	1018	33	0	
14	0	0	0	0	511	513	0	1018	32	0	
15	0	0	0	0	515	514	0	1018	32	0	
0	0	0	0	0	510	512	0	1019	32	0	
1	0	0	0	0	509	510	0	1018	32	0	
2	0	0	0	0	515	511	0	1018	33	0	
3	0	0	0	0	507	511	0	1018	33	0	
4	0	0	0	0	511	511	1	1018	33	0	
5	0	0	0	0	512	511	0	1018	33	0	
6	0	0	0	0	508	512	0	1018	33	0	
7	0	0	0	0	508	513	0	1018	33	0	
8	0	0	0	0	515	511	0	1019	32	0	
9	0	0	0	0	512	511	0	1018	32	0	
10	0	0	0	0	511	511	0	1018	32	0	
11	0	0	0	0	511	512	0	1018	32	0	
12	0	0	0	0	516	512	1	1019	33	0	
13	0	0	0	0	520	512	0	1018	33	0	
14	0	0	0	0	510	512	0	1018	33	0	
15	0	0	0	0	504	512	0	1018	34	0	
0	0	0	0	0	510	510	0	1019	33	0	
1	0	0	0	0	504	510	0	1019	33	0	
2	0	0	0	0	510	512	0	1018	32	0	
3	0	0	0	0	512	513	0	1018	32	0	
4	0	0	0	0	512	512	1	1019	32	0	
5	0	0	0	0	507	510	0	1018	32	0	
6	0	0	0	0	508	511	0	1018	33	0	
7	0	0	0	0	513	512	0	1018	33	0	
8	0	0	0	0	507	510	1	1018	33	0	
9	0	0	0	0	510	509	0	1019	32	0	
10	0	0	0	0	510	510	0	1018	32	0	
11	0	0	0	0	512	511	0	1018	32	0	
12	0	0	0	0	509	511	1	1019	32	0	
13	0	0	0	0	508	510	0	1019	32	0	
14	0	0	0	0	504	511	0	1018	32	0	
15	0	0	0	0	514	512	0	1018	32	0	
0	0	0	0	0	512	511	1	1018	32	0	
1	0	0	0	0	513	511	0	1018	32	0	
2	0	0	0	0	510	511	0	1018	32	0	
3	0	0	0	0	508	513	0	1018	32	0	
4	0	0	0	0	504	513	1	1019	32	0	
5	0	0	0	0	510	512	0	1019	32	0	
6	0	0	0	0	516	512	0	1018	32	0	
7	0	0	0	0	513	512	0	1018	32	0	
8	0	0	0	0	504	511	1	1019	32	0	
9	0	0	0	0	508	510	0	1019	32	0	
10	0	0	0	0	511	510	0	1019	33	0	
11	0	0	0	0	511	510	0	1018	33	0	
12	0	0	0	0	512	509	1	1018	32	0	
13	0	0	0	0	513	510	0	1018	32	0	
14	0	0	0	0	518	512	0	1018	32	0	
15	0	0	0	0	510	512	0	1018	32	0	
0	0	0	0	0	516	513	1	1019	33	0	
1	0	0	0	0	512	511	0	1019	33	0	
2	0	0	0	0	508	512	0	1018	34	0	
3	0	0	0	0	504	511	0	1018	34	0	
4	0	0	0	0	507	510	1	1019	33	0	
5	0	0	0	0	505	509	0	1018	32	0	
6	0	0	0	0	512	510	0	1018	31	0	
7	0	0	0	0	513	511	0	1018	32	0	
8	0	0	0	0	505	513	1	1019	33	0	
9	0	0	0	0	510	513	0	1019	34	0	
10	0	0	0	0	514	513	0	1018	35	0	
11	0	0	0	0	505	515	0	1018	34	0	
12	0	0	0	0	508	514	1	1019	31	0	
13	0	0	0	0	509	511	0	1019	30	0	
14	0	0	0	0	521	512	0	1018	30	0	
15	0	0	0	0	513	515	0	1018	31	0	
0	0	0	0	0	508	515	2	1019	33	0	
1	0	0	0	0	511	513	0	1018	33	0	
2	0	0	0	0	511	515	0	1018	34	0	
3	0	0	0	0	509	514	0	1018	34	0	
4	0	0	0	0	506	512	1	1019	31	0	
5	0	0	0	0	507	512	0	1018	30	0	
6	0	0	0	0	513	510	0	1019	30	0	
7	0	0	0	0	511	512	0	1018	31	0	
8	0	0	0	0	507	511	1	1019	32	0	
9	0	0	0	0	512	511	0	1019	33	0	
10	0	0	0	0	512	511	0	1018	33	0	
11	0	0	0	0	515	511	0	1018	32	0	
12	0	0	0	0	509	511	1	1019	31	0	
13	0	0	0	0	507	513	0	1019	30	0	
14	0	0	0	0	505	514	0	1018	32	0	
15	0	0	0	0	511	514	0	1018	32	0	
0	0	0	0	0	515	515	1	1019	33	0	
1	0	0	0	0	509	514	0	1019	32	0	
2	0	0	0	0	511	514	0	1019	32	0	
3	0	0	0	0	510	512	0	1018	31	0	
4	0	0	0	0	514	511	1	1019	31	0	
5	0	0	0	0	504	512	0	1018	32	0	
6	0	0	0	0	505	513	0	1018	33	0	
7	0	0	0	0	510	516	0	1018	34	0	
8	0	0	0	0	514	515	1	1019	33	0	
9	0	0	0	0	510	514	0	1019	32	0	
10	0	0	0	0	507	516	0	1018	31	0	
11	0	0	0	0	514	516	0	1018	31	0	
12	0	0	0	0	516	515	1	1019	32	0	
13	0	0	0	0	511	515	0	1018	33	0	
14	0	0	0	0	509	513	0	1018	34	0	
15	0	0	0	0	508	514	0	1018	34	0	
0	0	0	0	0	508	513	1	1019	33	0	
1	0	0	0	0	508	513	0	1019	31	0	
2	0	0	0	0	513	513	0	1018	31	0	
3	0	0	0	0	510	515	0	1018	32	0	
4	0	0	0	0	513	514	1	1019	33	0	
5	0	0	0	0	509	514	0	1019	35	0	
6	0	0	0	0	512	513	0	1018	35	0	
7	0	0	0	0	510	514	0	1018	34	0	
8	0	0	0	0	513	513	2	1019	32	0	
9	0	0	0	0	504	512	0	1018	31	0	
10	0	0	0	0	509	511	0	1018	30	0	
11	0	0	0	0	506	511	0	1018	32	0	
12	0	0	0	0	510	512	1	1019	33	0	
13	0	0	0	0	508	511	0	1019	34	0	
14	0	0	0	0	507	510	0	1019	35	0	
15	0	0	0	0	511	513	0	1018	33	0	
0	0	0	0	0	512	515	1	1019	32	0	
1	0	0	0	0	510	513	0	1019	32	0	
2	0	0	0	0	514	513	0	1018	32	0	
3	0	0	0	0	508	514	0	1018	33	0	
4	0	0	0	0	510	513	1	1019	33	0	
5	0	0	0	0	509	513	0	1019	33	0	
6	0	0	0	0	515	514	0	1018	32	0	
7	0	0	0	0	512	514	0	1018	31	0	
8	0	0	0	0	511	513	1	1019	31	0	
9	0	0	0	0	515	511	0	1019	32	0	
10	0	0	0	0	518	511	0	1019	33	0	
11	0	0	0	0	507	512	0	1018	34	0	
12	0	0	0	0	507	511	1	1018	33	0	
13	0	0	0	0	515	511	0	1019	32	0	
14	0	0	0	0	511	513	0	1018	31	0	
15	0	0	0	0	505	511	0	1018	30	0	
0	0	0	0	0	507	512	1	1019	31	0	
1	0	0	0	0	509	512	0	1018	32	0	
2	0	0	0	0	510	511	0	1018	34	0	
3	0	0	0	0	504	510	0	1018	34	0	
4	0	0	0	0	508	511	1	1018	33	0	
5	0	0	0	0	511	511	0	1018	31	0	
6	0	0	0	0	510	512	0	1018	30	0	
7	0	0	0	0	507	512	0	1018	30	0	
8	0	0	0	0	513	510	1	1018	31	0	
9	0	0	0	0	512	511	0	1019	32	0	
10	0	0	0	0	511	512	0	1018	33	0	
11	0	0	0	0	510	512	0	1018	33	0	
12	0	0	0	0	509	511	1	1018	32	0	
13	0	0	0	0	515	511	0	1019	32	0	
14	0	0	0	0	510	513	0	1019	32	0	
15	0	0	0	0	509	513	0	1018	32	0	
0	0	0	0	0	512	512	1	1018	32	0	
1	0	0	0	0	513	511	0	1019	32	0	
2	0	0	0	0	509	510	0	1019	32	0	
3	0	0	0	0	512	512	0	1018	31	0	
4	0	0	0	0	514	512	1	1019	30	0	
5	0	0	0	0	510	512	0	1019	31	0	
6	0	0	0	0	503	510	0	1018	32	0	
7	0	0	0	0	510	511	0	1018	33	0	
8	0	0	0	0	511	513	1	1019	34	0	
9	0	0	0	0	515	513	0	1018	33	0	
10	0	0	0	0	506	514	0	1019	32	0	
11	0	0	0	0	515	515	0	1018	31	0	
12	0	0	0	0	514	513	1	1018	30	0	
13	0	0	0	0	508	512	0	1019	31	0	
14	0	0	0	0	520	512	0	1018	33	0	
15	0	0	0	0	507	514	0	1018	33	0	
0	0	0	0	0	509	514	1	1019	34	0	
1	0	0	0	0	508	513	0	1019	33	0	
2	0	0	0	0	511	512	0	1019	33	0	
3	0	0	0	0	505	513	0	1018	32	0	
4	0	0	0	0	508	514	1	1019	32	0	
5	0	0	0	0	510	513	0	1018	32	0	
6	0	0	0	0	507	512	0	1019	33	0	
7	0	0	0	0	511	515	0	1018	32	0	
8	0	0	0	0	518	515	1	1019	32	0	
9	0	0	0	0	519	513	0	1018	32	0	
10	0	0	0	0	509	512	0	1018	32	0	
11	0	0	0	0	507	512	0	1018	32	0	
12	0	0	0	0	510	509	1	1019	33	0	
13	0	0	0	0	508	508	0	1018	33	0	
14	0	0	0	0	508	510	0	1018	33	0	
15	0	0	0	0	504	511	0	1018	32	0	
0	0	0	0	0	510	509	1	1019	31	0	
1	0	0	0	0	510	510	0	1019	31	0	
2	0	0	0	0	511	511	0	1018	31	0	
3	0	0	0	0	509	510	0	1018	32	0	
4	0	0	0	0	506	509	1	1018	33	0	
5	0	0	0	0	506	510	0	1018	34	0	
6	0	0	0	0	515	512	0	1018	33	0	
7	0	0	0	0	516	513	0	1018	32	0	
8	0	0	0	0	508	511	1	1019	32	0	
9	0	0	0	0	511	509	0	1019	32	0	
10	0	0	0	0	511	511	0	1018	32	0	
11	0	0	0	0	515	514	0	1018	33	0	
12	0	0	0	0	505	515	1	1018	33	0	
13	0	0	0	0	511	512	0	1018	33	0	
14	0	0	0	0	503	512	0	1018	33	0	
15	0	0	0	0	512	513	0	1018	33	0	
0	0	0	0	0	503	515	1	1019	33	0	
1	0	0	0	0	511	515	0	1018	34	0	
2	0	0	0	0	511	512	0	1018	34	0	
3	0	0	0	0	512	511	0	1018	33	0	
4	0	0	0	0	511	512	1	1019	33	0	
5	0	0	0	0	510	510	0	1019	33	0	
6	0	0	0	0	512	511	0	1018	32	0	
7	0	0	0	0	510	512	0	1018	32	0	
8	0	0	0	0	513	515	1	1019	33	0	
9	0	0	0	0	506	514	0	1019	33	0	
10	0	0	0	0	507	515	0	1018	34	0	
11	0	0	0	0	513	514	0	1018	33	0	
12	0	0	0	0	508	512	1	1018	32	0	
13	0	0	0	0	510	513	0	1018	31	0	
14	0	0	0	0	513	514	0	1018	31	0	
15	0	0	0	0	514	516	0	1018	31	0	
0	0	0	0	0	513	518	1	1019	31	0	
1	0	0	0	0	510	516	0	1019	32	0	
2	0	0	0	0	510	513	0	1018	32	0	
3	0	0	0	0	504	513	0	1018	32	0	
4	0	0	0	0	511	512	1	1019	31	0	
5	0	0	0	0	503	512	0	1018	31	0	
6	0	0	0	0	510	513	0	1018	31	0	
7	0	0	0	0	510	514	0	1018	31	0	
8	0	0	0	0	510	513	1	1019	31	0	
9	0	0	0	0	507	513	0	1019	32	0	
10	0	0	0	0	509	512	0	1018	31	0	
11	0	0	0	0	515	512	0	1018	31	0	
12	0	0	0	0	510	515	1	1019	31	0	
13	0	0	0	0	510	513	0	1019	31	0	
14	0	0	0	0	511	513	0	1018	32	0	
15	0	0	0	0	510	513	0	1018	32	0	
0	0	0	0	0	514	512	1	1019	32	0	
1	0	0	0	0	504	514	0	1018	32	0	
2	0	0	0	0	504	516	0	1018	31	0	
3	0	0	0	0	512	516	0	1018	31	0	
4	0	0	0	0	514	518	1	1019	31	0	
5	0	0	0	0	513	516	0	1019	31	0	
6	0	0	0	0	517	517	0	1018	32	0	
7	0	0	0	0	512	517	0	1018	33	0	
8	0	0	0	0	503	514	1	1018	33	0	
9	0	0	0	0	509	514	0	1018	32	0	
10	0	0	0	0	513	514	0	1018	32	0	
11	0	0	0	0	511	514	0	1018	31	0	
12	0	0	0	0	509	514	1	1019	32	0	
13	0	0	0	0	511	513	0	1019	32	0	
14	0	0	0	0	509	513	0	1018	32	0	
15	0	0	0	0	508	513	0	1018	32	0	
0	0	0	0	0	513	513	1	1019	32	0	
1	0	0	0	0	509	511	0	1019	32	0	
2	0	0	0	0	509	511	0	1018	32	0	
3	0	0	0	0	510	511	0	1018	32	0	
4	0	0	0	0	512	511	1	1019	32	0	
5	0	0	0	0	504	513	0	1018	32	0	
6	0	0	0	0	514	515	0	1018	32	0	
7	0	0	0	0	507	515	0	1018	31	0	
8	0	0	0	0	512	513	1	1019	31	0	
9	0	0	0	0	513	510	0	1018	31	0	
10	0	0	0	0	515	510	0	1018	31	0	
11	0	0	0	0	502	511	0	1018	32	0	
12	0	0	0	0	503	510	1	1019	32	0	
13	0	0	0	0	506	510	0	1019	32	0	
14	0	0	0	0	512	511	0	1018	32	0	
15	0	0	0	0	512	512	0	1018	32	0	
0	0	0	0	0	514	509	1	1018	31	0	
1	0	0	0	0	511	510	0	1019	32	0	
2	0	0	0	0	510	510	0	1018	32	0	
3	0	0	0	0	508	512	0	1018	32	0	
4	0	0	0	0	515	512	1	1019	32	0	
5	0	0	0	0	506	510	0	1019	32	0	
6	0	0	0	0	511	510	0	1018	32	0	
7	0	0	0	0	511	511	0	1018	32	0	
8	0	0	0	0	515	512	1	1018	32	0	
9	0	0	0	0	512	512	0	1018	32	0	
10	0	0	0	0	505	513	0	1018	33	0	
11	0	0	0	0	510	514	0	1018	33	0	
12	0	0	0	0	509	515	1	1019	33	0	
13	0	0	0	0	515	516	0	1018	32	0	
14	0	0	0	0	510	515	0	1018	32	0	
15	0	0	0	0	510	512	0	1018	32	0	
0	0	0	0	0	506	510	1	1018	33	0	
1	0	0	0	0	506	509	0	1018	33	0	
2	0	0	0	0	510	510	0	1018	33	0	
3	0	0	0	0	511	512	0	1018	33	0	
4	0	0	0	0	511	511	1	1018	32	0	
5	0	0	0	0	512	511	0	1019	32	0	
6	0	0	0	0	506	512	0	1018	32	0	
7	0	0	0	0	510	512	0	1018	32	0	
8	0	0	0	0	507	513	1	1019	32	0	
9	0	0	0	0	509	513	0	1019	32	0	
10	0	0	0	0	513	514	0	1018	32	0	
11	0	0	0	0	509	515	0	1018	32	0	
12	0	0	0	0	509	515	2	1019	32	0	
13	0	0	0	0	510	515	0	1018	32	0	
14	0	0	0	0	507	514	0	1018	32	0	
15	0	0	0	0	512	513	0	1018	32	0	
0	0	0	0	0	511	511	1	1019	32	0	
1	0	0	0	0	504	513	0	1018	32	0	
2	0	0	0	0	508	513	0	1018	32	0	
3	0	0	0	0	503	512	0	1018	32	0	
4	0	0	0	0	511	514	1	1019	32	0	
5	0	0	0	0	516	513	0	1018	32	0	
6	0	0	0	0	521	511	0	1018	32	0	
7	0	0	0	0	512	512	0	1018	32	0	
8	0	0	0	0	505	511	1	1019	32	0	
9	0	0	0	0	507	510	0	1019	32	0	
10	0	0	0	0	507	513	0	1018	32	0	
11	0	0	0	0	513	515	0	1018	32	0	
12	0	0	0	0	511	513	1	1019	32	0	
13	0	0	0	0	512	512	0	1018	32	0	
14	0	0	0	0	510	513	0	1019	32	0	
15	0	0	0	0	513	513	0	1018	32	0	
0	0	0	0	0	509	512	2	1019	32	0	
1	0	0	0	0	507	510	0	1018	32	0	
2	0	0	0	0	513	511	0	1018	32	0	
3	0	0	0	0	515	513	0	1018	32	0	
4	0	0	0	0	512	512	1	1019	32	0	
5	0	0	0	0	512	512	0	1018	32	0	
6	0	0	0	0	504	512	0	1018	32	0	
7	0	0	0	0	517	512	0	1018	32	0	
8	0	0	0	0	509	510	1	1018	32	0	
9	0	0	0	0	509	510	0	1018	32	0	
10	0	0	0	0	511	512	0	1018	32	0	
11	0	0	0	0	511	514	0	1018	32	0	
12	0	0	0	0	513	513	1	1018	32	0	
13	0	0	0	0	511	512	0	1018	32	0	
14	0	0	0	0	504	512	0	1018	32	0	
15	0	0	0	0	511	513	0	1018	32	0	
0	0	0	0	0	502	511	1	1018	31	0	
1	0	0	0	0	511	512	0	1019	32	0	
2	0	0	0	0	516	511	0	1018	32	0	
3	0	0	0	0	508	512	0	1018	32	0	
4	0	0	0	0	508	514	2	1019	32	0	
5	0	0	0	0	505	511	0	1018	32	0	
6	0	0	0	0	506	511	0	1018	32	0	
7	0	0	0	0	513	511	0	1018	32	0	
8	0	0	0	0	511	510	1	1019	32	0	
9	0	0	0	0	513	510	0	1018	32	0	
10	0	0	0	0	512	512	0	1018	32	0	
11	0	0	0	0	507	515	0	1018	32	0	
12	0	0	0	0	513	516	1	1019	32	0	
13	0	0	0	0	505	514	0	1018	32	0	
14	0	0	0	0	516	514	0	1018	32	0	
15	0	0	0	0	512	514	0	1018	32	0	
0	0	0	0	0	517	515	1	1019	32	0	
1	0	0	0	0	507	512	0	1019	32	0	
2	0	0	0	0	511	513	0	1018	32	0	
3	0	0	0	0	515	514	0	1018	32	0	
4	0	0	0	0	511	514	1	1019	32	0	
5	0	0	0	0	508	511	0	1019	32	0	
6	0	0	0	0	507	513	0	1018	32	0	
7	0	0	0	0	505	514	0	1018	32	0	
8	0	0	0	0	511	513	2	1019	32	0	
9	0	0	0	0	509	513	0	1018	32	0	
10	0	0	0	0	511	513	0	1018	32	0	
11	0	0	0	0	504	512	0	1018	32	0	
12	0	0	0	0	513	514	1	1019	32	0	
13	0	0	0	0	512	512	0	1018	32	0	
14	0	0	0	0	511	514	0	1018	32	0	
15	0	0	0	0	510	514	0	1018	32	0	
0	0	0	0	0	508	513	1	1019	32	0	
1	0	0	0	0	501	511	0	1018	32	0	
2	0	0	0	0	512	513	0	1018	32	0	
3	0	0	0	0	516	513	0	1018	32	0	
4	0	0	0	0	510	515	1	1019	32	0	
5	0	0	0	0	504	513	0	1019	32	0	
6	0	0	0	0	507	513	0	1018	32	0	
7	0	0	0	0	511	514	0	1018	32	0	
8	0	0	0	0	514	514	1	1019	32	0	
9	0	0	0	0	517	513	0	1018	32	0	
10	0	0	0	0	510	515	0	1018	32	0	
11	0	0	0	0	510	513	0	1018	32	0	
12	0	0	0	0	513	513	2	1019	32	0	
13	0	0	0	0	507	514	0	1018	32	0	
14	0	0	0	0	506	514	0	1018	32	0	
15	0	0	0	0	511	514	0	1018	33	0	
0	0	0	0	0	505	515	1	1019	33	0	
1	0	0	0	0	518	512	0	1018	33	0	
2	0	0	0	0	507	509	0	1018	33	0	
3	0	0	0	0	511	508	0	1018	32	0	
4	0	0	0	0	509	508	1	1018	32	0	
5	0	0	0	0	514	509	0	1018	32	0	
6	0	0	0	0	515	508	0	1018	32	0	
7	0	0	0	0	511	510	0	1018	31	0	
8	0	0	0	0	512	509	1	1018	32	0	
9	0	0	0	0	508	509	0	1018	32	0	
10	0	0	0	0	512	510	0	1018	32	0	
11	0	0	0	0	510	510	0	1018	33	0	
12	0	0	0	0	512	509	1	1018	33	0	
13	0	0	0	0	516	509	0	1018	34	0	
14	0	0	0	0	509	509	0	1018	34	0	
15	0	0	0	0	511	510	0	1018	34	0	
0	0	0	0	0	507	510	1	1018	33	0	
1	0	0	0	0	509	511	0	1018	33	0	
2	0	0	0	0	509	512	0	1018	32	0	
3	0	0	0	0	505	510	0	1018	32	0	
4	0	0	0	0	508	512	1	1019	32	0	
5	0	0	0	0	512	512	0	1018	32	0	
6	0	0	0	0	507	510	0	1018	33	0	
7	0	0	0	0	511	510	0	1018	32	0	
8	0	0	0	0	509	509	1	1019	33	0	
9	0	0	0	0	519	509	0	1018	33	0	
10	0	0	0	0	507	509	0	1018	32	0	
11	0	0	0	0	513	511	0	1018	32	0	
12	0	0	0	0	511	511	1	1019	31	0	
13	0	0	0	0	504	510	0	1018	31	0	
14	0	0	0	0	507	510	0	1018	31	0	
15	0	0	0	0	502	510	0	1018	31	0	
0	0	0	0	0	511	509	1	1019	31	0	
1	0	0	0	0	507	508	0	1018	30	0	
2	0	0	0	0	514	509	0	1018	29	0	
3	0	0	0	0	507	511	0	1018	28	0	
4	0	0	0	0	515	510	1	1019	25	0	
5	0	0	0	0	509	512	0	1018	23	0	
6	0	0	0	0	519	512	0	1018	27	0	
7	0	0	0	0	512	514	0	1018	25	0	
8	0	0	0	0	511	514	1	1019	26	0	
9	0	0	0	0	516	511	0	1018	25	0	
10	0	0	0	0	504	512	0	1018	25	0	
11	0	0	0	0	504	512	0	1018	23	0	
12	0	0	0	0	512	512	1	1019	24	0	
13	0	0	0	0	512	513	0	1018	24	0	
14	0	0	0	0	510	511	0	1018	26	0	
15	0	0	0	0	509	511	0	1018	27	0	
0	0	0	0	0	506	511	1	1019	30	0	
1	0	0	0	0	512	511	0	1018	29	0	
2	0	0	0	0	511	511	0	1018	27	0	
3	0	0	0	0	509	512	0	1018	27	0	
4	0	0	0	0	503	511	1	1019	26	0	
5	0	0	0	0	512	513	0	1018	30	0	
6	0	0	0	0	513	513	0	1018	32	0	
7	0	0	0	0	509	512	0	1018	32	0	
8	0	0	0	0	507	511	1	1018	32	0	
9	0	0	0	0	509	511	0	1018	30	0	
10	0	0	0	0	507	513	0	1018	29	0	
11	0	0	0	0	518	514	0	1018	30	0	
12	0	0	0	0	511	514	1	1019	31	0	
13	0	0	0	0	514	513	0	1018	31	0	
14	0	0	0	0	508	514	0	1018	32	0	
15	0	0	0	0	511	515	0	1018	31	0	
0	0	0	0	0	508	515	1	1019	31	0	
1	0	0	0	0	508	514	0	1018	28	0	
2	0	0	0	0	511	513	0	1018	28	0	
3	0	0	0	0	510	514	0	1018	30	0	
4	0	0	0	0	505	513	1	1019	30	0	
5	0	0	0	0	503	511	0	1018	32	0	
6	0	0	0	0	512	511	0	1018	31	0	
7	0	0	0	0	510	512	0	1018	30	0	
8	0	0	0	0	515	511	1	1019	29	0	
9	0	0	0	0	513	511	0	1018	30	0	
10	0	0	0	0	508	510	0	1018	31	0	
11	0	0	0	0	506	511	0	1018	32	0	
12	0	0	0	0	506	511	1	1019	32	0	
13	0	0	0	0	506	512	0	1018	33	0	
14	0	0	0	0	518	513	0	1018	33	0	
15	0	0	0	0	513	512	0	1018	31	0	
0	0	0	0	0	519	512	1	1018	31	0	
1	0	0	0	0	511	513	0	1018	31	0	
2	0	0	0	0	502	512	0	1018	33	0	
3	0	0	0	0	511	512	0	1018	33	0	
4	0	0	0	0	512	511	1	1019	33	0	
5	0	0	0	0	502	511	0	1018	33	0	
6	0	0	0	0	508	510	1	1018	31	0	
7	0	0	0	0	512	510	0	1018	31	0	
8	0	0	0	0	513	512	1	1019	31	0	
9	0	0	0	0	510	511	0	1018	33	0	
10	0	0	0	0	518	510	0	1018	33	0	
11	0	0	0	0	510	511	0	1018	32	0	
12	0	0	0	0	513	512	1	1018	32	0	
13	0	0	0	0	510	512	0	1018	30	0	
14	0	0	0	0	505	512	0	1018	29	0	
15	0	0	0	0	508	512	0	1018	28	0	
0	0	0	0	0	522	512	2	1019	27	0	
1	0	0	0	0	504	511	0	1018	27	0	
2	0	0	0	0	510	512	0	1018	27	0	
3	0	0	0	0	509	512	0	1018	26	0	
4	0	0	0	0	510	512	1	1019	26	0	
5	0	0	0	0	507	512	0	1018	26	0	
6	0	0	0	0	517	512	0	1018	25	0	
7	0	0	0	0	518	513	0	1018	26	0	
8	0	0	0	0	515	512	1	1019	27	0	
9	0	0	0	0	511	511	0	1018	29	0	
10	0	0	0	0	507	512	0	1018	30	0	
11	0	0	0	0	503	513	0	1018	29	0	
12	0	0	0	0	507	512	1	1018	30	0	
13	0	0	0	0	508	512	0	1018	31	0	
14	0	0	0	0	512	512	0	1018	31	0	
15	0	0	0	0	516	512	0	1018	32	0	
0	0	0	0	0	515	511	1	1019	32	0	
1	0	0	0	0	508	513	0	1018	33	0	
2	0	0	0	0	512	513	0	1018	34	0	
3	0	0	0	0	512	513	0	1018	33	0	
4	0	0	0	0	507	515	2	1019	33	0	
5	0	0	0	0	511	514	0	1018	32	0	
6	0	0	0	0	508	512	0	1018	32	0	
7	0	0	0	0	513	512	0	1018	33	0	
8	0	0	0	0	511	513	1	1019	33	0	
9	0	0	0	0	511	511	0	1018	33	0	
10	0	0	0	0	510	512	0	1018	32	0	
11	0	0	0	0	511	511	0	1018	31	0	
12	0	0	0	0	508	511	1	1019	32	0	
13	0	0	0	0	515	510	0	1018	32	0	
14	0	0	0	0	513	511	0	1018	31	0	
15	0	0	0	0	514	511	0	1013	30	0	
0	0	0	0	0	513	514	1	999	30	0	
1	0	0	0	0	499	513	0	950	30	0	
2	0	0	0	0	511	512	0	894	30	0	
3	0	0	0	0	511	513	0	872	30	0	
4	0	0	0	0	508	512	1	886	31	0	
5	0	0	0	0	508	513	0	899	31	0	
6	0	0	0	0	508	514	0	908	31	0	
7	0	0	0	0	513	513	0	904	31	0	
8	0	0	0	0	508	511	1	903	31	0	
9	0	0	0	0	514	513	0	913	31	0	
10	0	0	0	0	515	513	0	938	31	0	
11	0	0	0	0	510	514	0	966	31	0	
12	0	0	0	0	512	515	1	975	33	0	
13	0	0	0	0	505	513	0	987	33	0	
14	0	0	0	0	505	513	0	987	32	0	
15	0	0	0	0	517	513	0	988	31	0	
0	0	0	0	0	507	513	1	974	31	0	
1	0	0	0	0	503	515	0	989	31	0	
2	0	0	0	0	512	515	0	1005	31	0	
3	0	0	0	0	518	514	0	1006	31	0	
4	0	0	0	0	503	515	1	989	30	0	
5	0	0	0	0	507	513	0	973	31	0	
6	0	0	0	0	512	512	0	968	31	0	
7	0	0	0	0	518	513	0	978	30	0	
8	0	0	0	0	508	513	1	965	31	0	
9	0	0	0	0	514	512	0	961	30	0	
10	0	0	0	0	501	514	0	948	30	0	
11	0	0	0	0	512	515	0	984	31	0	
12	0	0	0	0	517	515	2	990	31	0	
13	0	0	0	0	500	515	0	947	31	0	
14	0	0	0	0	509	514	0	905	30	0	
15	0	0	0	0	507	515	0	877	31	0	
0	0	0	0	0	512	516	1	862	31	0	
1	0	0	0	0	514	515	0	876	32	0	
2	0	0	0	0	512	513	0	865	31	0	
3	0	0	0	0	513	513	0	878	30	0	
4	0	0	0	0	510	514	1	877	31	0	
5	0	0	0	0	510	514	0	886	31	0	
6	0	0	0	0	512	513	0	896	30	0	
7	0	0	0	0	508	513	0	902	30	0	
8	0	0	0	0	515	513	1	907	30	0	
9	0	0	0	0	505	512	0	921	30	0	
10	0	0	0	0	511	511	0	914	30	0	
11	0	0	0	0	512	514	0	900	30	0	
12	0	0	0	0	505	514	1	895	30	0	
13	0	0	0	0	512	511	0	910	30	0	
14	0	0	0	0	508	511	0	903	30	0	
15	0	0	0	0	513	513	0	889	30	0	
0	0	0	0	0	511	515	2	863	31	0	
1	0	0	0	0	504	514	0	862	30	0	
2	0	0	0	0	508	514	0	872	30	0	
3	0	0	0	0	514	512	0	875	30	0	
4	0	0	0	0	513	511	1	896	31	0	
5	0	0	0	0	510	510	0	931	31	0	
6	0	0	0	0	521	511	0	948	31	0	
7	0	0	0	0	517	512	0	941	31	0	
8	0	0	0	0	507	511	1	943	31	0	
9	0	0	0	0	507	512	0	939	32	0	
10	0	0	0	0	511	512	0	902	31	0	
11	0	0	0	0	505	512	0	845	31	0	
12	0	0	0	0	505	512	1	814	32	0	
13	0	0	0	0	506	511	0	819	32	0	
14	0	0	0	0	506	510	0	849	32	0	
15	0	0	0	0	505	512	0	871	32	0	
0	0	0	0	0	509	511	1	860	32	0	
1	0	0	0	0	509	510	0	849	31	0	
2	0	0	0	0	512	510	0	841	31	0	
3	0	0	0	0	508	511	0	809	31	0	
4	0	0	0	0	507	510	1	771	30	0	
5	0	0	0	0	516	511	0	739	30	0	
6	0	0	0	0	521	513	0	713	30	0	
7	0	0	0	0	507	515	0	720	30	0	
8	0	0	0	0	517	514	1	772	30	0	
9	0	0	0	0	509	512	0	813	31	0	
10	0	0	0	0	511	513	0	816	30	0	
11	0	0	0	0	504	513	0	804	31	0	
12	0	0	0	0	512	513	1	786	31	0	
13	0	0	0	0	516	512	0	764	30	0	
14	0	0	0	0	504	513	0	755	31	0	
15	0	0	0	0	512	514	0	772	31	0	
0	0	0	0	0	510	513	1	798	31	0	
1	0	0	0	0	510	512	0	795	31	0	
2	0	0	0	0	507	514	0	810	31	0	
3	0	0	0	0	515	514	0	830	31	0	
4	0	0	0	0	504	515	1	851	31	0	
5	0	0	0	0	509	514	0	826	31	0	
6	0	0	0	0	518	513	0	790	30	0	
7	0	0	0	0	506	513	0	751	31	0	
8	0	0	0	0	515	512	1	706	31	0	
9	0	0	0	0	510	511	0	659	31	0	
10	0	0	0	0	515	512	0	609	30	0	
11	0	0	0	0	505	515	0	575	31	0	
12	0	0	0	0	512	513	1	532	31	0	
13	0	0	0	0	510	514	0	522	31	0	
14	0	0	0	0	512	514	0	568	31	0	
15	0	0	0	0	513	514	0	611	31	0	
0	0	0	0	0	509	515	1	615	31	0	
1	0	0	0	0	509	514	0	623	31	0	
2	0	0	0	0	507	513	0	667	30	0	
3	0	0	0	0	510	515	0	733	31	0	
4	0	0	0	0	510	514	1	768	31	0	
5	0	0	0	0	512	514	0	774	31	0	
6	0	0	0	0	510	513	0	769	31	0	
7	0	0	0	0	506	515	0	752	31	0	
8	0	0	0	0	509	515	1	719	32	0	
9	0	0	0	0	515	513	0	685	31	0	
10	0	0	0	0	505	512	0	641	31	0	
11	0	0	0	0	512	513	0	615	32	0	
12	0	0	0	0	516	513	1	603	32	0	
13	0	0	0	0	508	511	0	616	32	0	
14	0	0	0	0	512	512	0	628	32	0	
15	0	0	0	0	507	515	0	633	32	0	
0	0	0	0	0	506	514	1	627	32	0	
1	0	0	0	0	511	512	0	612	31	0	
2	0	0	0	0	507	510	0	597	31	0	
3	0	0	0	0	511	511	0	608	32	0	
4	0	0	0	0	511	514	1	646	32	0	
5	0	0	0	0	506	513	0	689	31	0	
6	0	0	0	0	516	513	0	725	31	0	
7	0	0	0	0	505	513	0	741	31	0	
8	0	0	0	0	517	515	1	733	31	0	
9	0	0	0	0	512	513	0	707	31	0	
10	0	0	0	0	508	513	0	665	31	0	
11	0	0	0	0	516	516	0	625	31	0	
12	0	0	0	0	509	515	1	558	31	0	
13	0	0	0	0	503	512	0	510	31	0	
14	0	0	0	0	512	512	0	486	30	0	
15	0	0	0	0	516	513	0	499	31	0	
0	0	0	0	0	515	513	1	532	30	0	
1	0	0	0	0	503	513	0	537	30	0	
2	0	0	0	0	508	513	0	516	30	0	
3	0	0	0	0	509	510	0	501	30	0	
4	0	0	0	0	512	511	1	492	30	0	
5	0	0	0	0	514	511	0	482	30	0	
6	0	0	0	0	508	510	0	457	30	0	
7	0	0	0	0	506	511	0	406	30	0	
8	0	0	0	0	505	512	0	363	30	0	
9	0	0	0	0	506	513	0	362	30	0	
10	0	0	0	0	515	513	0	387	31	0	
11	0	0	0	0	511	513	0	419	31	0	
12	0	0	0	0	515	514	0	447	30	0	
13	0	0	0	0	507	514	0	458	30	0	
14	0	0	0	0	510	514	0	455	31	0	
15	0	0	0	0	510	514	0	447	31	0	
0	0	0	0	0	511	512	0	428	31	0	
1	0	0	0	0	512	511	0	391	31	0	
2	0	0	0	0	510	512	0	336	31	0	
3	0	0	0	0	513	512	0	271	31	0	
4	0	0	0	0	507	512	1	210	31	0	
5	0	0	0	0	507	512	0	171	31	0	
6	0	0	0	0	506	512	0	155	31	0	
7	0	0	0	0	504	515	0	164	31	0	
8	0	0	0	0	509	515	0	189	31	0	
9	0	0	0	0	511	515	0	224	31	0	
10	0	0	0	0	508	514	0	275	31	0	
11	0	0	0	0	508	513	0	312	31	0	
12	0	0	0	0	512	512	1	336	31	0	
13	0	0	0	0	503	510	0	354	31	0	
14	0	0	0	0	510	512	0	367	31	0	
15	0	0	0	0	513	513	0	392	31	0	
0	0	0	0	0	515	510	0	397	31	0	
1	0	0	0	0	512	511	0	387	31	0	
2	0	0	0	0	507	510	0	367	31	0	
3	0	0	0	0	514	512	0	335	31	0	
4	0	0	0	0	514	512	1	307	31	0	
5	0	0	0	0	504	512	0	291	31	0	
6	0	0	0	0	509	512	0	281	32	0	
7	0	0	0	0	511	512	0	268	32	0	
8	0	0	0	0	510	513	1	252	31	0	
9	0	0	0	0	509	513	0	240	31	0	
10	0	0	0	0	507	511	0	243	31	0	
11	0	0	0	0	506	510	0	255	31	0	
12	0	0	0	0	516	511	0	274	31	0	
13	0	0	0	0	508	511	0	262	32	0	
14	0	0	0	0	510	512	0	238	32	0	
15	0	0	0	0	507	513	0	222	32	0	
0	0	0	0	0	506	509	0	223	32	0	
1	0	0	0	0	512	509	0	231	32	0	
2	0	0	0	0	521	510	0	254	32	0	
3	0	0	0	0	516	510	0	271	32	0	
4	0	0	0	0	508	510	1	269	32	0	
5	0	0	0	0	509	510	0	283	32	0	
6	0	0	0	0	507	510	0	320	32	0	
7	0	0	0	0	514	510	0	353	32	0	
8	0	0	0	0	513	510	1	356	32	0	
9	0	0	0	0	505	511	0	355	32	0	
10	0	0	0	0	504	511	0	354	32	0	
11	0	0	0	0	503	515	0	329	33	0	
12	0	0	0	0	513	513	1	296	32	0	
13	0	0	0	0	512	512	0	295	32	0	
14	0	0	0	0	518	511	0	323	32	0	
15	0	0	0	0	505	512	0	371	32	0	
0	0	0	0	0	510	511	0	413	32	0	
1	0	0	0	0	509	512	0	434	32	0	
2	0	0	0	0	508	513	0	421	32	0	
3	0	0	0	0	515	512	0	379	32	0	
4	0	0	0	0	509	513	1	322	32	0	
5	0	0	0	0	508	511	0	280	32	0	
6	0	0	0	0	505	510	0	248	33	0	
7	0	0	0	0	506	511	0	226	33	0	
8	0	0	0	0	511	513	0	236	32	0	
9	0	0	0	0	511	513	0	255	32	0	
10	0	0	0	0	515	512	0	272	33	0	
11	0	0	0	0	508	514	0	278	33	0	
12	0	0	0	0	513	515	0	270	32	0	
13	0	0	0	0	512	515	0	256	33	0	
14	0	0	0	0	506	514	0	273	33	0	
15	0	0	0	0	511	514	0	292	32	0	
0	0	0	0	0	512	514	1	303	32	0	
1	0	0	0	0	511	511	0	307	32	0	
2	0	0	0	0	512	510	0	319	32	0	
3	0	0	0	0	508	510	0	307	32	0	
4	0	0	0	0	515	510	1	291	32	0	
5	0	0	0	0	511	510	0	273	32	0	
6	0	0	0	0	506	513	0	260	32	0	
7	0	0	0	0	500	515	0	246	32	0	
8	0	0	0	0	510	514	1	224	32	0	
9	0	0	0	0	517	513	0	197	32	0	
10	0	0	0	0	509	513	0	171	33	0	
11	0	0	0	0	514	513	0	151	33	0	
12	0	0	0	0	512	513	0	139	32	0	
13	0	0	0	0	507	513	0	127	32	0	
14	0	0	0	0	509	513	0	112	33	0	
15	0	0	0	0	506	514	0	96	32	0	
0	0	0	0	0	505	514	1	99	32	0	
1	0	0	0	0	509	514	0	129	32	0	
2	0	0	0	0	507	515	0	163	33	0	
3	0	0	0	0	508	515	0	198	32	0	
4	0	0	0	0	511	515	0	205	32	0	
5	0	0	0	0	513	515	0	209	33	0	
6	0	0	0	0	515	515	0	194	33	0	
7	0	0	0	0	511	514	0	167	33	0	
8	0	0	0	0	511	512	0	130	33	0	
9	0	0	0	0	506	512	0	94	33	0	
10	0	0	0	0	513	511	0	83	33	0	
11	0	0	0	0	511	510	0	83	33	0	
12	0	0	0	0	506	509	0	77	32	0	
13	0	0	0	0	510	511	0	80	33	0	
14	0	0	0	0	512	510	0	81	33	0	
15	0	0	0	0	506	512	0	87	33	0	
0	0	0	0	0	507	512	0	92	34	0	
1	0	0	0	0	510	512	0	88	33	0	
2	0	0	0	0	513	512	0	79	34	0	
3	0	0	0	0	512	513	0	76	34	0	
4	0	0	0	0	510	512	1	93	33	0	
5	0	0	0	0	512	511	0	111	34	0	
6	0	0	0	0	512	512	0	112	33	0	
7	0	0	0	0	510	511	0	105	33	0	
8	0	0	0	0	510	510	0	109	33	0	
9	0	0	0	0	504	510	0	122	33	0	
10	0	0	0	0	503	512	0	115	33	0	
11	0	0	0	0	509	514	0	112	33	0	
12	0	0	0	0	509	513	0	124	33	0	
13	0	0	0	0	507	512	0	132	33	0	
14	0	0	0	0	508	511	0	124	32	0	
15	0	0	0	0	508	511	0	108	32	0	
0	0	0	0	0	508	512	0	92	32	0	
1	0	0	0	0	512	512	0	76	32	0	
2	0	0	0	0	517	513	0	62	32	0	
3	0	0	0	0	509	513	0	62	32	0	
4	0	0	0	0	514	513	1	61	33	0	
5	0	0	0	0	499	511	0	52	32	0	
6	0	0	0	0	516	513	0	44	32	0	
7	0	0	0	0	506	515	0	49	33	0	
8	0	0	0	0	508	515	1	60	32	0	
9	0	0	0	0	503	513	0	90	33	0	
10	0	0	0	0	510	512	0	132	33	0	
11	0	0	0	0	512	514	0	167	32	0	
12	0	0	0	0	508	512	1	172	32	0	
13	0	0	0	0	510	514	0	159	32	0	
14	0	0	0	0	510	512	0	136	32	0	
15	0	0	0	0	514	511	0	115	33	0	
0	0	0	0	0	515	510	0	106	33	0	
1	0	0	0	0	510	508	0	124	33	0	
2	0	0	0	0	519	510	0	158	33	0	
3	0	0	0	0	513	510	0	184	32	0	
4	0	0	0	0	511	510	0	204	32	0	
5	0	0	0	0	513	510	0	232	32	0	
6	0	0	0	0	504	510	0	264	32	0	
7	0	0	0	0	509	512	0	287	32	0	
8	0	0	0	0	516	511	0	297	33	0	
9	0	0	0	0	504	510	0	294	33	0	
10	0	0	0	0	504	510	0	270	32	0	
11	0	0	0	0	512	510	0	243	33	0	
12	0	0	0	0	505	510	1	212	32	0	
13	0	0	0	0	510	510	0	174	32	0	
14	0	0	0	0	510	509	0	137	33	0	
15	0	0	0	0	508	511	0	109	32	0	
0	0	0	0	0	509	514	1	91	32	0	
1	0	0	0	0	510	513	0	94	33	0	
2	0	0	0	0	516	512	0	122	32	0	
3	0	0	0	0	507	512	0	161	33	0	
4	0	0	0	0	512	512	0	208	33	0	
5	0	0	0	0	510	512	0	233	32	0	
6	0	0	0	0	514	512	0	236	32	0	
7	0	0	0	0	515	513	0	228	32	0	
8	0	0	0	0	511	514	1	217	32	0	
9	0	0	0	0	514	513	0	223	32	0	
10	0	0	0	0	510	513	0	223	32	0	
11	0	0	0	0	506	513	0	216	32	0	
12	0	0	0	0	511	515	0	223	32	0	
13	0	0	0	0	507	513	0	241	32	0	
14	0	0	0	0	511	513	0	252	32	0	
15	0	0	0	0	512	513	0	259	32	0	
0	0	0	0	0	512	512	0	266	32	0	
1	0	0	0	0	512	511	0	279	32	0	
2	0	0	0	0	507	513	0	314	32	0	
3	0	0	0	0	513	512	0	319	32	0	
4	0	0	0	0	506	515	1	337	32	0	
5	0	0	0	0	505	513	0	372	32	0	
6	0	0	0	0	515	511	0	403	32	0	
7	0	0	0	0	513	512	0	413	32	0	
8	0	0	0	0	505	511	0	412	32	0	
9	0	0	0	0	514	511	0	399	31	0	
10	0	0	0	0	508	512	0	393	32	0	
11	0	0	0	0	504	512	0	385	31	0	
12	0	0	0	0	512	512	1	364	31	0	
13	0	0	0	0	512	512	0	345	31	0	
14	0	0	0	0	508	512	0	341	31	0	
15	0	0	0	0	509	512	0	356	31	0	
0	0	0	0	0	512	510	0	391	31	0	
1	0	0	0	0	512	508	0	444	31	0	
2	0	0	0	0	512	509	0	497	31	0	
3	0	0	0	0	512	511	0	532	31	0	
4	0	0	0	0	510	510	1	535	31	0	
5	0	0	0	0	512	509	0	514	31	0	
6	0	0	0	0	513	512	0	481	31	0	
7	0	0	0	0	516	511	0	460	31	0	
8	0	0	0	0	509	510	1	456	31	0	
9	0	0	0	0	508	511	0	464	31	0	
10	0	0	0	0	513	510	0	434	31	0	
11	0	0	0	0	506	510	0	395	31	0	
12	0	0	0	0	505	509	0	362	31	0	
13	0	0	0	0	511	509	0	348	31	0	
14	0	0	0	0	511	511	0	337	31	0	
15	0	0	0	0	511	511	0	340	31	0	
0	0	0	0	0	507	512	0	363	30	0	
1	0	0	0	0	510	513	0	400	31	0	
2	0	0	0	0	510	516	0	457	31	0	
3	0	0	0	0	515	516	0	503	31	0	
4	0	0	0	0	511	514	0	540	31	0	
5	0	0	0	0	517	514	0	555	31	0	
6	0	0	0	0	515	512	0	556	31	0	
7	0	0	0	0	505	513	0	547	31	0	
8	0	0	0	0	504	512	1	535	31	0	
9	0	0	0	0	504	510	0	510	31	0	
10	0	0	0	0	504	512	0	497	31	0	
11	0	0	0	0	511	513	0	486	31	0	
12	0	0	0	0	512	511	1	477	31	0	
13	0	0	0	0	508	512	0	484	31	0	
14	0	0	0	0	512	513	0	487	31	0	
15	0	0	0	0	509	513	0	500	31	0	
0	0	0	0	0	507	513	1	505	31	0	
1	0	0	0	0	512	512	0	514	31	0	
2	0	0	0	0	511	515	0	503	32	0	
3	0	0	0	0	513	514	0	476	32	0	
4	0	0	0	0	510	512	0	421	32	0	
5	0	0	0	0	514	511	0	390	32	0	
6	0	0	0	0	512	510	0	379	32	0	
7	0	0	0	0	504	512	0	402	32	0	
8	0	0	0	0	507	513	0	428	32	0	
9	0	0	0	0	513	512	0	449	32	0	
10	0	0	0	0	518	514	0	461	32	0	
11	0	0	0	0	513	513	0	460	32	0	
12	0	0	0	0	509	513	0	445	32	0	
13	0	0	0	0	512	512	0	432	32	0	
14	0	0	0	0	510	513	0	411	32	0	
15	0	0	0	0	505	512	0	382	32	0	
0	0	0	0	0	508	512	1	370	32	0	
1	0	0	0	0	511	513	0	378	32	0	
2	0	0	0	0	508	515	0	392	32	0	
3	0	0	0	0	511	515	0	403	32	0	
4	0	0	0	0	513	516	1	406	32	0	
5	0	0	0	0	503	516	0	382	32	0	
6	0	0	0	0	512	515	0	367	32	0	
7	0	0	0	0	511	514	0	380	33	0	
8	0	0	0	0	508	515	1	416	32	0	
9	0	0	0	0	506	515	0	420	32	0	
10	0	0	0	0	506	515	0	442	33	0	
11	0	0	0	0	511	516	0	460	33	0	
12	0	0	0	0	523	515	1	451	33	0	
13	0	0	0	0	512	515	0	428	33	0	
14	0	0	0	0	512	513	0	419	33	0	
15	0	0	0	0	511	512	0	413	33	0	
0	0	0	0	0	509	511	1	416	33	0	
1	0	0	0	0	510	512	0	414	33	0	
2	0	0	0	0	513	511	0	407	33	0	
3	0	0	0	0	513	512	0	406	33	0	
4	0	0	0	0	510	510	1	417	33	0	
5	0	0	0	0	510	510	0	419	33	0	
6	0	0	0	0	512	510	0	405	33	0	
7	0	0	0	0	516	512	0	396	33	0	
8	0	0	0	0	505	512	1	391	33	0	
9	0	0	0	0	508	511	0	392	33	0	
10	0	0	0	0	512	509	0	388	33	0	
11	0	0	0	0	505	510	0	381	33	0	
12	0	0	0	0	505	510	0	365	33	0	
13	0	0	0	0	505	512	0	339	33	0	
14	0	0	0	0	508	512	0	321	33	0	
15	0	0	0	0	515	511	0	320	33	0	
0	0	0	0	0	515	513	1	330	33	0	
1	0	0	0	0	510	513	0	346	33	0	
2	0	0	0	0	512	512	0	355	33	0	
3	0	0	0	0	508	516	0	375	33	0	
4	0	0	0	0	516	516	1	406	33	0	
5	0	0	0	0	515	512	0	432	33	0	
6	0	0	0	0	512	512	0	448	33	0	
7	0	0	0	0	504	512	0	452	33	0	
8	0	0	0	0	510	513	1	446	33	0	
9	0	0	0	0	511	513	0	432	33	0	
10	0	0	0	0	506	513	0	413	33	0	
11	0	0	0	0	508	514	0	403	33	0	
12	0	0	0	0	510	514	1	392	33	0	
13	0	0	0	0	508	512	0	388	32	0	
14	0	0	0	0	511	515	0	375	32	0	
15	0	0	0	0	508	514	0	348	32	0	
0	0	0	0	0	512	513	1	321	32	0	
1	0	0	0	0	512	511	0	321	32	0	
2	0	0	0	0	511	511	0	349	32	0	
3	0	0	0	0	510	513	0	380	32	0	
4	0	0	0	0	509	514	1	433	32	0	
5	0	0	0	0	504	512	0	498	32	0	
6	0	0	0	0	510	510	0	549	32	0	
7	0	0	0	0	515	510	0	572	31	0	
8	0	0	0	0	511	509	1	573	31	0	
9	0	0	0	0	512	510	0	567	31	0	
10	0	0	0	0	509	511	0	564	31	0	
11	0	0	0	0	508	513	0	563	31	0	
12	0	0	0	0	508	512	1	552	31	0	
13	0	0	0	0	516	512	0	529	31	0	
14	0	0	0	0	512	511	0	483	31	0	
15	0	0	0	0	511	513	0	422	31	0	
0	0	0	0	0	509	510	0	357	31	0	
1	0	0	0	0	509	509	0	311	31	0	
2	0	0	0	0	510	509	0	289	31	0	
3	0	0	0	0	519	509	0	287	31	0	
4	0	0	0	0	504	507	1	300	31	0	
5	0	0	0	0	500	509	0	333	31	0	
6	0	0	0	0	510	511	0	367	31	0	
7	0	0	0	0	508	512	0	399	31	0	
8	0	0	0	0	516	512	1	452	32	0	
9	0	0	0	0	508	511	0	495	31	0	
10	0	0	0	0	515	513	0	500	32	0	
11	0	0	0	0	515	513	0	472	32	0	
12	0	0	0	0	512	514	1	430	31	0	
13	0	0	0	0	507	513	0	399	32	0	
14	0	0	0	0	505	514	0	396	31	0	
15	0	0	0	0	505	515	0	416	31	0	
0	0	0	0	0	508	515	1	453	31	0	
1	0	0	0	0	512	513	0	489	31	0	
2	0	0	0	0	514	512	0	510	32	0	
3	0	0	0	0	505	512	0	524	32	0	
4	0	0	0	0	505	511	0	541	32	0	
5	0	0	0	0	511	510	0	547	32	0	
6	0	0	0	0	515	512	0	539	32	0	
7	0	0	0	0	513	511	0	504	32	0	
8	0	0	0	0	510	512	0	459	32	0	
9	0	0	0	0	508	510	0	425	32	0	
10	0	0	0	0	513	512	0	426	32	0	
11	0	0	0	0	514	511	0	432	32	0	
12	0	0	0	0	514	512	1	437	32	0	
13	0	0	0	0	507	511	0	430	31	0	
14	0	0	0	0	508	510	0	401	31	0	
15	0	0	0	0	509	511	0	370	30	0	
0	0	0	0	0	511	511	1	336	30	0	
1	0	0	0	0	510	511	0	307	30	0	
2	0	0	0	0	515	510	0	266	30	0	
3	0	0	0	0	512	510	0	227	30	0	
4	0	0	0	0	510	510	1	201	31	0	
5	0	0	0	0	516	510	0	187	31	0	
6	0	0	0	0	511	508	0	128	31	0	
7	0	0	0	0	505	510	0	54	31	0	
8	0	0	0	0	515	509	0	11	31	0	
9	0	0	0	0	511	509	0	3	31	0	
10	0	0	0	0	507	510	0	35	30	0	
11	0	0	0	0	505	511	0	131	31	0	
12	0	0	0	0	500	509	0	266	31	0	
13	0	0	0	0	513	509	0	379	31	0	
14	0	0	0	0	506	508	0	496	32	0	
15	0	0	0	0	508	509	0	584	32	0	
0	0	0	0	0	512	507	0	606	32	0	
1	0	0	0	0	502	508	0	571	32	0	
2	0	0	0	0	513	507	0	529	31	0	
3	0	0	0	0	513	508	0	481	32	0	
4	0	0	0	0	511	508	1	438	31	0	
5	0	0	0	0	505	508	0	398	31	0	
6	0	0	0	0	509	510	0	363	32	0	
7	0	0	0	0	512	510	0	352	31	0	
8	0	0	0	0	515	510	1	363	32	0	
9	0	0	0	0	510	511	0	385	32	0	
10	0	0	0	0	504	511	0	405	31	0	
11	0	0	0	0	510	512	0	410	32	0	
12	0	0	0	0	509	511	1	412	31	0	
13	0	0	0	0	508	509	0	403	31	0	
14	0	0	0	0	514	511	0	383	31	0	
15	0	0	0	0	512	512	0	354	31	0	
0	0	0	0	0	518	510	1	325	32	0	
1	0	0	0	0	505	510	0	309	32	0	
2	0	0	0	0	515	510	0	294	32	0	
3	0	0	0	0	513	510	0	291	32	0	
4	0	0	0	0	506	510	1	282	32	0	
5	0	0	0	0	511	508	0	244	32	0	
6	0	0	0	0	507	509	0	213	32	0	
7	0	0	0	0	513	511	0	201	31	0	
8	0	0	0	0	506	510	1	221	32	0	
9	0	0	0	0	507	508	0	230	31	0	
10	0	0	0	0	513	509	0	214	31	0	
11	0	0	0	0	515	510	0	219	31	0	
12	0	0	0	0	504	511	1	239	31	0	
13	0	0	0	0	506	510	0	259	31	0	
14	0	0	0	0	517	510	0	271	30	0	
15	0	0	0	0	511	511	0	304	31	0	
0	0	0	0	0	513	512	1	347	30	0	
1	0	0	0	0	510	512	0	397	30	0	
2	0	0	0	0	506	514	0	418	30	0	
3	0	0	0	0	505	512	0	408	30	0	
4	0	0	0	0	515	511	1	398	29	0	
5	0	0	0	0	515	509	0	408	30	0	
6	0	0	0	0	512	511	0	422	30	0	
7	0	0	0	0	506	512	0	423	30	0	
8	0	0	0	0	514	511	1	389	30	0	
9	0	0	0	0	513	510	0	375	30	0	
10	0	0	0	0	513	510	0	370	30	0	
11	0	0	0	0	513	510	0	341	30	0	
12	0	0	0	0	512	510	1	272	30	0	
13	0	0	0	0	511	509	0	190	30	0	
14	0	0	0	0	504	510	0	146	30	0	
15	0	0	0	0	512	511	0	163	30	0	
0	0	0	0	0	506	511	0	188	30	0	
1	0	0	0	0	510	512	0	192	30	0	
2	0	0	0	0	516	513	0	199	30	0	
3	0	0	0	0	512	513	0	195	30	0	
4	0	0	0	0	507	513	0	167	30	0	
5	0	0	0	0	505	512	0	134	29	0	
6	0	0	0	0	509	513	0	102	30	0	
7	0	0	0	0	511	512	0	73	30	0	
8	0	0	0	0	511	511	1	38	29	0	
9	0	0	0	0	510	510	0	14	30	0	
10	0	0	0	0	512	512	0	13	30	0	
11	0	0	0	0	510	513	0	90	30	0	
12	0	0	0	0	508	513	1	224	30	0	
13	0	0	0	0	509	512	0	345	30	0	
14	0	0	0	0	513	512	0	421	30	0	
15	0	0	0	0	512	514	0	451	30	0	
0	0	0	0	0	504	512	0	461	30	0	
1	0	0	0	0	508	511	0	467	30	0	
2	0	0	0	0	515	513	0	468	30	0	
3	0	0	0	0	517	515	0	450	31	0	
4	0	0	0	0	507	515	0	409	31	0	
5	0	0	0	0	504	515	0	356	31	0	
6	0	0	0	0	513	513	0	309	31	0	
7	0	0	0	0	511	513	0	265	31	0	
8	0	0	0	0	504	513	0	248	31	0	
9	0	0	0	0	509	513	0	266	31	0	
10	0	0	0	0	511	511	0	311	31	0	
11	0	0	0	0	515	512	0	354	31	0	
12	0	0	0	0	506	512	0	354	31	0	
13	0	0	0	0	516	513	0	315	31	0	
14	0	0	0	0	501	511	0	257	31	0	
15	0	0	0	0	502	514	0	207	31	0	
0	0	0	0	0	514	514	1	197	31	0	
1	0	0	0	0	516	512	0	214	31	0	
2	0	0	0	0	517	512	0	246	31	0	
3	0	0	0	0	511	512	0	275	31	0	
4	0	0	0	0	512	512	0	303	31	0	
5	0	0	0	0	516	511	0	304	31	0	
6	0	0	0	0	509	513	0	282	31	0	
7	0	0	0	0	506	514	0	242	31	0	
8	0	0	0	0	511	512	1	206	31	0	
9	0	0	0	0	510	511	0	175	31	0	
10	0	0	0	0	510	512	0	156	31	0	
11	0	0	0	0	511	511	0	139	31	0	
12	0	0	0	0	509	509	0	144	31	0	
13	0	0	0	0	509	509	0	174	31	0	
14	0	0	0	0	508	508	0	221	31	0	
15	0	0	0	0	514	508	0	291	31	0	
0	0	0	0	0	515	507	1	363	31	0	
1	0	0	0	0	506	510	0	398	32	0	
2	0	0	0	0	516	511	0	385	32	0	
3	0	0	0	0	512	513	0	360	32	0	
4	0	0	0	0	509	515	1	339	31	0	
5	0	0	0	0	508	514	0	324	31	0	
6	0	0	0	0	507	513	0	333	31	0	
7	0	0	0	0	512	512	0	384	31	0	
8	0	0	0	0	508	512	1	410	31	0	
9	0	0	0	0	507	510	0	388	32	0	
10	0	0	0	0	508	512	0	335	31	0	
11	0	0	0	0	512	512	0	277	31	0	
12	0	0	0	0	514	513	1	240	32	0	
13	0	0	0	0	508	511	0	194	32	0	
14	0	0	0	0	510	514	0	158	32	0	
15	0	0	0	0	510	513	0	124	31	0	
0	0	0	0	0	507	512	0	120	31	0	
1	0	0	0	0	512	511	0	155	32	0	
2	0	0	0	0	513	512	0	190	32	0	
3	0	0	0	0	509	511	0	221	31	0	
4	0	0	0	0	507	512	0	246	32	0	
5	0	0	0	0	510	512	0	268	32	0	
6	0	0	0	0	514	512	0	264	31	0	
7	0	0	0	0	510	513	0	249	31	0	
8	0	0	0	0	509	513	0	231	32	0	
9	0	0	0	0	508	511	0	216	31	0	
10	0	0	0	0	510	511	0	193	31	0	
11	0	0	0	0	517	512	0	171	31	0	
12	0	0	0	0	517	512	0	146	31	0	
13	0	0	0	0	507	513	0	129	32	0	
14	0	0	0	0	514	515	0	111	31	0	
15	0	0	0	0	513	515	0	113	31	0	
0	0	0	0	0	509	517	1	134	32	0	
1	0	0	0	0	505	515	0	166	32	0	
2	0	0	0	0	513	514	0	186	32	0	
3	0	0	0	0	505	512	0	197	31	0	
4	0	0	0	0	511	513	1	162	31	0	
5	0	0	0	0	509	512	0	85	31	0	
6	0	0	0	0	507	515	0	0	31	0	
7	0	0	0	0	509	513	0	0	31	0	
8	0	0	0	0	514	512	0	0	31	0	
9	0	0	0	0	512	512	0	68	32	0	
10	0	0	0	0	517	513	0	149	32	0	
11	0	0	0	0	516	515	0	250	32	0	
12	0	0	0	0	507	513	0	336	32	0	
13	0	0	0	0	507	513	0	428	32	0	
14	0	0	0	0	506	514	0	469	32	0	
15	0	0	0	0	504	514	0	495	32	0	
0	0	0	0	0	514	513	0	480	32	0	
1	0	0	0	0	510	513	0	430	32	0	
2	0	0	0	0	511	513	0	369	32	0	
3	0	0	0	0	506	514	0	320	32	0	
4	0	0	0	0	511	514	1	291	32	0	
5	0	0	0	0	513	516	0	261	32	0	
6	0	0	0	0	513	516	0	229	32	0	
7	0	0	0	0	510	516	0	206	32	0	
8	0	0	0	0	509	516	1	201	32	0	
9	0	0	0	0	511	513	0	212	32	0	
10	0	0	0	0	508	512	0	239	32	0	
11	0	0	0	0	507	513	0	247	32	0	
12	0	0	0	0	507	512	0	251	32	0	
13	0	0	0	0	511	512	0	263	32	0	
14	0	0	0	0	514	513	0	285	32	0	
15	0	0	0	0	509	515	0	314	32	0	
0	0	0	0	0	511	516	1	356	32	0	
1	0	0	0	0	510	515	0	383	32	0	
2	0	0	0	0	511	514	0	407	32	0	
3	0	0	0	0	510	513	0	407	32	0	
4	0	0	0	0	503	511	0	421	32	0	
5	0	0	0	0	510	511	0	405	32	0	
6	0	0	0	0	511	511	0	362	32	0	
7	0	0	0	0	512	512	0	305	32	0	
8	0	0	0	0	508	512	1	246	32	0	
9	0	0	0	0	505	511	0	215	32	0	
10	0	0	0	0	517	510	0	207	32	0	
11	0	0	0	0	507	512	0	227	32	0	
12	0	0	0	0	509	510	0	223	32	0	
13	0	0	0	0	505	511	0	188	32	0	
14	0	0	0	0	514	512	0	157	32	0	
15	0	0	0	0	507	512	0	154	32	0	
0	0	0	0	0	508	511	0	146	32	0	
1	0	0	0	0	509	509	0	139	32	0	
2	0	0	0	0	516	511	0	158	32	0	
3	0	0	0	0	509	510	0	205	32	0	
4	0	0	0	0	509	512	1	268	32	0	
5	0	0	0	0	512	511	0	332	31	0	
6	0	0	0	0	519	510	0	398	31	0	
7	0	0	0	0	509	510	0	430	31	0	
8	0	0	0	0	511	510	0	425	31	0	
9	0	0	0	0	513	509	0	399	31	0	
10	0	0	0	0	512	507	0	374	31	0	
11	0	0	0	0	504	509	0	378	31	0	
12	0	0	0	0	504	509	1	378	31	0	
13	0	0	0	0	511	510	0	368	31	0	
14	0	0	0	0	512	508	0	369	31	0	
15	0	0	0	0	510	508	0	398	31	0	
0	0	0	0	0	507	507	1	430	31	0	
1	0	0	0	0	513	507	0	467	31	0	
2	0	0	0	0	506	509	0	488	31	0	
3	0	0	0	0	508	512	0	488	31	0	
4	0	0	0	0	514	511	1	473	31	0	
5	0	0	0	0	512	510	0	459	31	0	
6	0	0	0	0	515	511	0	452	31	0	
7	0	0	0	0	506	512	0	423	31	0	
8	0	0	0	0	508	512	0	371	31	0	
9	0	0	0	0	514	512	0	330	31	0	
10	0	0	0	0	513	511	0	307	31	0	
11	0	0	0	0	514	512	0	299	31	0	
12	0	0	0	0	512	511	0	300	31	0	
13	0	0	0	0	508	512	0	341	31	0	
14	0	0	0	0	503	511	0	396	31	0	
15	0	0	0	0	508	512	0	440	31	0	
0	0	0	0	0	519	510	1	476	31	0	
1	0	0	0	0	505	509	0	536	31	0	
2	0	0	0	0	505	510	0	611	31	0	
3	0	0	0	0	501	510	0	668	31	0	
4	0	0	0	0	509	510	1	681	31	0	
5	0	0	0	0	511	509	0	674	31	0	
6	0	0	0	0	511	510	0	670	31	0	
7	0	0	0	0	505	511	0	661	31	0	
8	0	0	0	0	510	513	0	654	31	0	
9	0	0	0	0	510	512	0	627	31	0	
10	0	0	0	0	510	511	0	571	31	0	
11	0	0	0	0	510	512	0	517	31	0	
12	0	0	0	0	516	510	0	497	31	0	
13	0	0	0	0	507	510	0	497	31	0	
14	0	0	0	0	512	513	0	472	31	0	
15	0	0	0	0	510	512	0	462	31	0	
0	0	0	0	0	507	513	1	461	31	0	
1	0	0	0	0	509	513	0	466	31	0	
2	0	0	0	0	511	513	0	479	31	0	
3	0	0	0	0	510	513	0	493	31	0	
4	0	0	0	0	507	513	1	481	31	0	
5	0	0	0	0	507	513	0	457	31	0	
6	0	0	0	0	515	512	0	444	31	0	
7	0	0	0	0	519	512	0	457	31	0	
8	0	0	0	0	503	512	1	473	31	0	
9	0	0	0	0	509	511	0	485	31	0	
10	0	0	0	0	507	512	0	496	31	0	
11	0	0	0	0	514	512	0	479	31	0	
12	0	0	0	0	515	512	1	429	31	0	
13	0	0	0	0	503	512	0	369	31	0	
14	0	0	0	0	517	512	0	347	31	0	
15	0	0	0	0	501	513	0	363	31	0	
0	0	0	0	0	510	512	0	373	31	0	
1	0	0	0	0	510	512	0	383	31	0	
2	0	0	0	0	514	511	0	415	31	0	
3	0	0	0	0	511	511	0	449	31	0	
4	0	0	0	0	508	511	1	465	31	0	
5	0	0	0	0	514	510	0	461	31	0	
6	0	0	0	0	513	510	0	444	31	0	
7	0	0	0	0	510	513	0	441	31	0	
8	0	0	0	0	513	512	1	446	31	0	
9	0	0	0	0	509	513	0	450	31	0	
10	0	0	0	0	510	513	0	457	31	0	
11	0	0	0	0	512	512	0	478	31	0	
12	0	0	0	0	509	511	0	486	31	0	
13	0	0	0	0	511	510	0	484	31	0	
14	0	0	0	0	508	510	0	486	31	0	
15	0	0	0	0	509	511	0	471	32	0	
0	0	0	0	0	510	512	1	443	31	0	
1	0	0	0	0	510	512	0	413	32	0	
2	0	0	0	0	508	515	0	399	32	0	
3	0	0	0	0	517	515	0	401	32	0	
4	0	0	0	0	511	513	0	411	32	0	
5	0	0	0	0	508	512	0	419	32	0	
6	0	0	0	0	506	512	0	387	32	0	
7	0	0	0	0	509	513	0	348	32	0	
8	0	0	0	0	519	511	1	328	32	0	
9	0	0	0	0	512	512	0	335	32	0	
10	0	0	0	0	503	511	0	394	32	0	
11	0	0	0	0	507	511	0	466	32	0	
12	0	0	0	0	509	511	1	497	32	0	
13	0	0	0	0	504	511	0	504	32	0	
14	0	0	0	0	513	511	0	495	32	0	
15	0	0	0	0	503	510	0	488	32	0	
0	0	0	0	0	514	510	1	490	32	0	
1	0	0	0	0	512	510	0	503	32	0	
2	0	0	0	0	508	511	0	518	32	0	
3	0	0	0	0	517	512	0	514	32	0	
4	0	0	0	0	519	509	0	487	32	0	
5	0	0	0	0	504	509	0	465	32	0	
6	0	0	0	0	505	510	0	455	32	0	
7	0	0	0	0	510	510	0	460	32	0	
8	0	0	0	0	512	510	0	451	32	0	
9	0	0	0	0	507	510	0	434	33	0	
10	0	0	0	0	514	509	0	441	33	0	
11	0	0	0	0	512	509	0	444	32	0	
12	0	0	0	0	510	511	1	433	33	0	
13	0	0	0	0	504	511	0	428	32	0	
14	0	0	0	0	513	512	0	434	32	0	
15	0	0	0	0	503	514	0	454	32	0	
0	0	0	0	0	510	512	1	472	32	0	
1	0	0	0	0	510	511	0	483	33	0	
2	0	0	0	0	511	512	0	496	32	0	
3	0	0	0	0	512	511	0	521	32	0	
4	0	0	0	0	512	512	1	537	32	0	
5	0	0	0	0	508	510	0	516	33	0	
6	0	0	0	0	512	511	0	478	32	0	
7	0	0	0	0	512	511	0	468	32	0	
8	0	0	0	0	518	510	1	462	32	0	
9	0	0	0	0	509	510	0	446	32	0	
10	0	0	0	0	502	508	0	435	32	0	
11	0	0	0	0	505	510	0	453	32	0	
12	0	0	0	0	508	511	1	504	32	0	
13	0	0	0	0	508	510	0	571	32	0	
14	0	0	0	0	519	509	0	649	32	0	
15	0	0	0	0	510	510	0	706	32	0	
0	0	0	0	0	510	511	0	721	32	0	
1	0	0	0	0	512	511	0	700	32	0	
2	0	0	0	0	508	510	0	675	32	0	
3	0	0	0	0	513	511	0	675	32	0	
4	0	0	0	0	511	511	1	706	32	0	
5	0	0	0	0	503	512	0	746	32	0	
6	0	0	0	0	511	513	0	790	32	0	
7	0	0	0	0	512	513	0	817	32	0	
8	0	0	0	0	515	512	1	800	32	0	
9	0	0	0	0	500	510	0	736	32	0	
10	0	0	0	0	502	512	0	671	32	0	
11	0	0	0	0	509	511	0	585	32	0	
12	0	0	0	0	516	509	0	496	32	0	
13	0	0	0	0	514	509	0	441	32	0	
14	0	0	0	0	508	511	0	405	32	0	
15	0	0	0	0	505	512	0	400	32	0	
0	0	0	0	0	512	513	1	421	32	0	
1	0	0	0	0	507	513	0	456	32	0	
2	0	0	0	0	509	512	0	513	32	0	
3	0	0	0	0	511	514	0	564	32	0	
4	0	0	0	0	509	512	1	625	32	0	
5	0	0	0	0	511	513	0	664	32	0	
6	0	0	0	0	514	514	0	685	32	0	
7	0	0	0	0	511	513	0	694	32	0	
8	0	0	0	0	516	512	1	693	32	0	
9	0	0	0	0	507	512	0	681	32	0	
10	0	0	0	0	511	515	0	655	32	0	
11	0	0	0	0	503	515	0	594	32	0	
12	0	0	0	0	517	513	1	524	32	0	
13	0	0	0	0	518	513	0	485	32	0	
14	0	0	0	0	509	513	0	482	32	0	
15	0	0	0	0	510	514	0	470	32	0	
0	0	0	0	0	510	514	1	483	32	0	
1	0	0	0	0	505	511	0	480	32	0	
2	0	0	0	0	511	513	0	461	32	0	
3	0	0	0	0	511	512	0	427	32	0	
4	0	0	0	0	511	512	0	379	32	0	
5	0	0	0	0	512	514	0	357	32	0	
6	0	0	0	0	503	513	0	377	32	0	
7	0	0	0	0	511	513	0	390	32	0	
8	0	0	0	0	507	511	1	393	32	0	
9	0	0	0	0	508	513	0	413	32	0	
10	0	0	0	0	505	512	0	446	32	0	
11	0	0	0	0	511	515	0	494	32	0	
12	0	0	0	0	512	515	0	542	32	0	
13	0	0	0	0	513	516	0	583	32	0	
14	0	0	0	0	516	516	0	611	32	0	
15	0	0	0	0	508	516	0	605	32	0	
0	0	0	0	0	508	516	0	574	32	0	
1	0	0	0	0	509	515	0	549	32	0	
2	0	0	0	0	512	515	0	518	32	0	
3	0	0	0	0	511	513	0	486	32	0	
4	0	0	0	0	505	514	0	458	32	0	
5	0	0	0	0	507	514	0	443	32	0	
6	0	0	0	0	510	512	0	464	32	0	
7	0	0	0	0	510	511	0	505	32	0	
8	0	0	0	0	512	510	0	533	32	0	
9	0	0	0	0	510	511	0	537	32	0	
10	0	0	0	0	512	513	0	550	32	0	
11	0	0	0	0	507	513	0	535	32	0	
12	0	0	0	0	512	513	1	508	32	0	
13	0	0	0	0	508	512	0	481	32	0	
14	0	0	0	0	514	510	0	463	32	0	
15	0	0	0	0	511	511	0	466	32	0	
0	0	0	0	0	515	513	0	461	32	0	
1	0	0	0	0	509	512	0	440	32	0	
2	0	0	0	0	507	513	0	417	32	0	
3	0	0	0	0	512	514	0	396	32	0	
4	0	0	0	0	514	510	0	407	32	0	
5	0	0	0	0	506	510	0	426	32	0	
6	0	0	0	0	507	510	0	446	32	0	
7	0	0	0	0	514	510	0	452	32	0	
8	0	0	0	0	513	510	0	474	32	0	
9	0	0	0	0	511	509	0	499	32	0	
10	0	0	0	0	512	510	0	508	32	0	
11	0	0	0	0	509	511	0	503	32	0	
12	0	0	0	0	514	511	1	494	32	0	
13	0	0	0	0	510	509	0	488	32	0	
14	0	0	0	0	512	509	0	467	32	0	
15	0	0	0	0	517	510	0	460	32	0	
0	0	0	0	0	507	511	0	490	32	0	
1	0	0	0	0	504	512	0	521	32	0	
2	0	0	0	0	514	513	0	555	32	0	
3	0	0	0	0	515	513	0	595	32	0	
4	0	0	0	0	512	513	1	599	32	0	
5	0	0	0	0	508	511	0	580	32	0	
6	0	0	0	0	508	512	0	550	32	0	
7	0	0	0	0	515	512	0	516	32	0	
8	0	0	0	0	508	513	1	524	32	0	
9	0	0	0	0	504	513	0	531	32	0	
10	0	0	0	0	509	512	0	491	32	0	
11	0	0	0	0	505	513	0	427	32	0	
12	0	0	0	0	510	512	1	384	32	0	
13	0	0	0	0	507	511	0	375	32	0	
14	0	0	0	0	508	511	0	372	32	0	
15	0	0	0	0	510	512	0	348	32	0	
0	0	0	0	0	511	513	1	319	32	0	
1	0	0	0	0	513	512	0	344	32	0	
2	0	0	0	0	506	512	0	424	32	0	
3	0	0	0	0	512	512	0	496	32	0	
4	0	0	0	0	508	512	1	508	32	0	
5	0	0	0	0	505	512	0	482	32	0	
6	0	0	0	0	511	511	0	461	32	0	
7	0	0	0	0	511	511	0	451	32	0	
8	0	0	0	0	507	511	1	444	32	0	
9	0	0	0	0	506	511	0	415	32	0	
10	0	0	0	0	507	510	0	376	32	0	
11	0	0	0	0	507	510	0	376	32	0	
12	0	0	0	0	513	511	0	425	32	0	
13	0	0	0	0	518	509	0	474	32	0	
14	0	0	0	0	513	509	0	507	32	0	
15	0	0	0	0	513	509	0	539	32	0	
0	0	0	0	0	510	509	1	576	32	0	
1	0	0	0	0	509	508	0	614	32	0	
2	0	0	0	0	506	508	0	643	32	0	
3	0	0	0	0	507	508	0	677	32	0	
4	0	0	0	0	515	511	1	712	32	0	
5	0	0	0	0	510	510	0	713	32	0	
6	0	0	0	0	510	511	0	681	32	0	
7	0	0	0	0	515	510	0	635	32	0	
8	0	0	0	0	505	509	0	590	32	0	
9	0	0	0	0	511	509	0	571	32	0	
10	0	0	0	0	503	509	0	550	32	0	
11	0	0	0	0	516	508	0	513	32	0	
12	0	0	0	0	516	509	1	481	32	0	
13	0	0	0	0	511	508	0	467	32	0	
14	0	0	0	0	509	508	0	462	31	0	
15	0	0	0	0	513	510	0	459	31	0	
0	0	0	0	0	510	508	0	448	31	0	
1	0	0	0	0	511	509	0	434	31	0	
2	0	0	0	0	508	510	0	438	31	0	
3	0	0	0	0	503	512	0	467	31	0	
4	0	0	0	0	510	513	0	487	31	0	
5	0	0	0	0	511	513	0	499	31	0	
6	0	0	0	0	505	512	0	467	31	0	
7	0	0	0	0	507	508	0	437	31	0	
8	0	0	0	0	505	508	0	394	31	0	
9	0	0	0	0	508	509	0	354	31	0	
10	0	0	0	0	513	511	0	347	31	0	
11	0	0	0	0	511	512	0	370	31	0	
12	0	0	0	0	503	511	1	391	31	0	
13	0	0	0	0	509	508	0	413	31	0	
14	0	0	0	0	512	509	0	420	31	0	
15	0	0	0	0	508	509	0	400	31	0	
0	0	0	0	0	508	511	1	384	31	0	
1	0	0	0	0	510	511	0	381	31	0	
2	0	0	0	0	508	510	0	366	31	0	
3	0	0	0	0	516	511	0	354	31	0	
4	0	0	0	0	518	511	1	375	31	0	
5	0	0	0	0	508	510	0	424	31	0	
6	0	0	0	0	516	510	0	483	31	0	
7	0	0	0	0	513	511	0	536	31	0	
8	0	0	0	0	506	510	0	572	31	0	
9	0	0	0	0	506	511	0	584	31	0	
10	0	0	0	0	511	511	0	566	31	0	
11	0	0	0	0	515	511	0	526	31	0	
12	0	0	0	0	515	512	1	496	31	0	
13	0	0	0	0	507	511	0	502	31	0	
14	0	0	0	0	505	512	0	539	31	0	
15	0	0	0	0	513	513	0	591	31	0	
0	0	0	0	0	515	514	1	620	31	0	
1	0	0	0	0	511	515	0	620	31	0	
2	0	0	0	0	507	515	0	619	31	0	
3	0	0	0	0	506	514	0	602	31	0	
4	0	0	0	0	504	513	1	561	31	0	
5	0	0	0	0	519	513	0	513	31	0	
6	0	0	0	0	511	512	0	461	31	0	
7	0	0	0	0	506	513	0	402	31	0	
8	0	0	0	0	512	510	1	345	31	0	
9	0	0	0	0	506	510	0	313	31	0	
10	0	0	0	0	512	511	0	319	31	0	
11	0	0	0	0	507	512	0	326	31	0	
12	0	0	0	0	504	513	1	343	31	0	
13	0	0	0	0	511	511	0	385	31	0	
14	0	0	0	0	512	512	0	435	31	0	
15	0	0	0	0	507	513	0	481	31	0	
0	0	0	0	0	508	512	1	471	31	0	
1	0	0	0	0	511	511	0	448	31	0	
2	0	0	0	0	512	511	0	457	31	0	
3	0	0	0	0	514	510	0	525	31	0	
4	0	0	0	0	511	512	1	599	31	0	
5	0	0	0	0	505	510	0	669	31	0	
6	0	0	0	0	504	509	0	696	31	0	
7	0	0	0	0	509	510	0	653	31	0	
8	0	0	0	0	513	510	1	544	31	0	
9	0	0	0	0	511	508	0	407	31	0	
10	0	0	0	0	512	509	0	281	31	0	
11	0	0	0	0	508	509	0	191	31	0	
12	0	0	0	0	511	512	1	132	31	0	
13	0	0	0	0	515	513	0	114	31	0	
14	0	0	0	0	516	512	0	133	31	0	
15	0	0	0	0	514	511	0	154	31	0	
0	0	0	0	0	508	511	0	162	31	0	
1	0	0	0	0	507	512	0	190	31	0	
2	0	0	0	0	511	511	0	251	31	0	
3	0	0	0	0	507	511	0	315	31	0	
4	0	0	0	0	513	511	1	361	31	0	
5	0	0	0	0	507	510	0	369	31	0	
6	0	0	0	0	514	512	0	347	31	0	
7	0	0	0	0	509	511	0	304	31	0	
8	0	0	0	0	512	512	0	273	31	0	
9	0	0	0	0	505	511	0	280	31	0	
10	0	0	0	0	512	512	0	297	31	0	
11	0	0	0	0	509	511	0	323	31	0	
12	0	0	0	0	512	508	1	349	31	0	
13	0	0	0	0	506	509	0	377	31	0	
14	0	0	0	0	519	508	0	411	31	0	
15	0	0	0	0	510	509	0	451	31	0	
0	0	0	0	0	504	510	1	464	31	0	
1	0	0	0	0	513	510	0	483	31	0	
2	0	0	0	0	506	510	0	491	31	0	
3	0	0	0	0	518	510	0	489	31	0	
4	0	0	0	0	511	509	1	481	31	0	
5	0	0	0	0	511	510	0	492	31	0	
6	0	0	0	0	515	510	0	518	31	0	
7	0	0	0	0	512	512	0	526	31	0	
8	0	0	0	0	514	509	0	490	31	0	
9	0	0	0	0	509	510	0	444	31	0	
10	0	0	0	0	508	511	0	392	31	0	
11	0	0	0	0	507	512	0	365	31	0	
12	0	0	0	0	511	513	1	377	31	0	
13	0	0	0	0	510	512	0	387	31	0	
14	0	0	0	0	509	513	0	379	31	0	
15	0	0	0	0	511	512	0	357	31	0	
0	0	0	0	0	514	512	1	349	31	0	
1	0	0	0	0	510	510	0	367	31	0	
2	0	0	0	0	509	511	0	395	31	0	
3	0	0	0	0	509	512	0	420	31	0	
4	0	0	0	0	513	511	0	440	31	0	
5	0	0	0	0	510	511	0	444	31	0	
6	0	0	0	0	504	512	0	394	31	0	
7	0	0	0	0	508	513	0	331	31	0	
8	0	0	0	0	511	513	1	351	31	0	
9	0	0	0	0	519	512	0	419	31	0	
10	0	0	0	0	510	511	0	473	31	0	
11	0	0	0	0	506	512	0	510	31	0	
12	0	0	0	0	500	510	1	519	31	0	
13	0	0	0	0	507	510	0	519	31	0	
14	0	0	0	0	515	510	0	526	31	0	
15	0	0	0	0	511	509	0	527	31	0	
0	0	0	0	0	510	509	0	504	31	0	
1	0	0	0	0	507	508	0	492	31	0	
2	0	0	0	0	513	509	0	509	31	0	
3	0	0	0	0	512	510	0	577	31	0	
4	0	0	0	0	508	511	1	663	31	0	
5	0	0	0	0	508	512	0	710	31	0	
6	0	0	0	0	510	512	0	700	31	0	
7	0	0	0	0	505	511	0	648	31	0	
8	0	0	0	0	508	512	1	580	31	0	
9	0	0	0	0	508	510	0	532	31	0	
10	0	0	0	0	515	510	0	541	31	0	
11	0	0	0	0	513	508	0	591	31	0	
12	0	0	0	0	510	510	1	637	31	0	
13	0	0	0	0	509	510	0	650	31	0	
14	0	0	0	0	513	511	0	611	31	0	
15	0	0	0	0	504	511	0	563	31	0	
0	0	0	0	0	513	510	0	511	31	0	
1	0	0	0	0	512	512	0	468	31	0	
2	0	0	0	0	519	513	0	452	31	0	
3	0	0	0	0	513	512	0	456	31	0	
4	0	0	0	0	513	513	0	457	31	0	
5	0	0	0	0	507	513	0	451	31	0	
6	0	0	0	0	512	512	0	444	31	0	
7	0	0	0	0	510	512	0	445	31	0	
8	0	0	0	0	513	513	1	448	31	0	
9	0	0	0	0	509	511	0	460	31	0	
10	0	0	0	0	510	513	0	470	31	0	
11	0	0	0	0	509	513	0	467	31	0	
12	0	0	0	0	511	512	0	465	31	0	
13	0	0	0	0	512	512	0	440	31	0	
14	0	0	0	0	504	515	0	415	31	0	
15	0	0	0	0	506	514	0	410	31	0	
0	0	0	0	0	518	513	0	425	32	0	
1	0	0	0	0	505	513	0	436	31	0	
2	0	0	0	0	508	511	0	438	31	0	
3	0	0	0	0	508	513	0	432	31	0	
4	0	0	0	0	515	515	1	420	31	0	
5	0	0	0	0	514	513	0	440	31	0	
6	0	0	0	0	513	513	0	479	31	0	
7	0	0	0	0	515	513	0	508	31	0	
8	0	0	0	0	515	514	1	535	31	0	
9	0	0	0	0	508	513	0	553	31	0	
10	0	0	0	0	513	513	0	570	31	0	
11	0	0	0	0	505	514	0	581	31	0	
12	0	0	0	0	505	515	1	585	31	0	
13	0	0	0	0	505	513	0	583	31	0	
14	0	0	0	0	517	513	0	543	31	0	
15	0	0	0	0	511	511	0	482	31	0	
0	0	0	0	0	510	512	0	401	31	0	
1	0	0	0	0	510	511	0	326	31	0	
2	0	0	0	0	512	510	0	287	31	0	
3	0	0	0	0	509	511	0	313	31	0	
4	0	0	0	0	504	512	1	397	31	0	
5	0	0	0	0	510	512	0	483	31	0	
6	0	0	0	0	512	511	0	552	31	0	
7	0	0	0	0	514	513	0	593	31	0	
8	0	0	0	0	512	513	1	603	31	0	
9	0	0	0	0	513	512	0	609	31	0	
10	0	0	0	0	513	513	0	625	31	0	
11	0	0	0	0	512	511	0	622	31	0	
12	0	0	0	0	515	513	0	594	31	0	
13	0	0	0	0	515	511	0	566	31	0	
14	0	0	0	0	504	512	0	537	31	0	
15	0	0	0	0	508	515	0	527	31	0	
0	0	0	0	0	504	513	1	511	31	0	
1	0	0	0	0	506	512	0	501	31	0	
2	0	0	0	0	508	514	0	524	31	0	
3	0	0	0	0	508	515	0	563	31	0	
4	0	0	0	0	510	514	0	599	31	0	
5	0	0	0	0	515	513	0	614	31	0	
6	0	0	0	0	510	513	0	611	31	0	
7	0	0	0	0	514	515	0	589	31	0	
8	0	0	0	0	511	515	1	559	31	0	
9	0	0	0	0	515	514	0	537	31	0	
10	0	0	0	0	507	514	0	535	31	0	
11	0	0	0	0	514	514	0	562	31	0	
12	0	0	0	0	511	513	1	630	31	0	
13	0	0	0	0	507	510	0	667	31	0	
14	0	0	0	0	506	511	0	652	31	0	
15	0	0	0	0	510	511	0	620	31	0	
0	0	0	0	0	511	509	0	602	31	0	
1	0	0	0	0	505	510	0	600	31	0	
2	0	0	0	0	514	512	0	594	31	0	
3	0	0	0	0	510	514	0	591	31	0	
4	0	0	0	0	511	514	1	603	31	0	
5	0	0	0	0	513	515	0	624	31	0	
6	0	0	0	0	508	514	0	623	31	0	
7	0	0	0	0	506	515	0	586	31	0	
8	0	0	0	0	509	512	0	537	31	0	
9	0	0	0	0	506	512	0	467	31	0	
10	0	0	0	0	513	510	0	393	31	0	
11	0	0	0	0	511	511	0	355	31	0	
12	0	0	0	0	504	510	0	364	31	0	
13	0	0	0	0	504	511	0	380	31	0	
14	0	0	0	0	514	512	0	398	31	0	
15	0	0	0	0	512	513	0	455	31	0	
0	0	0	0	0	518	513	1	537	31	0	
1	0	0	0	0	507	512	0	625	31	0	
2	0	0	0	0	507	513	0	657	31	0	
3	0	0	0	0	509	513	0	621	31	0	
4	0	0	0	0	512	511	1	558	31	0	
5	0	0	0	0	513	510	0	487	31	0	
6	0	0	0	0	520	511	0	400	31	0	
7	0	0	0	0	507	514	0	335	31	0	
8	0	0	0	0	504	511	0	285	31	0	
9	0	0	0	0	508	510	0	263	31	0	
10	0	0	0	0	511	512	0	271	31	0	
11	0	0	0	0	513	512	0	327	31	0	
12	0	0	0	0	505	513	1	408	31	0	
13	0	0	0	0	508	512	0	486	31	0	
14	0	0	0	0	512	510	0	529	31	0	
15	0	0	0	0	508	511	0	556	31	0	
0	0	0	0	0	509	510	0	598	31	0	
1	0	0	0	0	511	509	0	645	31	0	
2	0	0	0	0	510	509	0	667	31	0	
3	0	0	0	0	508	509	0	632	31	0	
4	0	0	0	0	512	510	1	544	31	0	
5	0	0	0	0	508	510	0	485	31	0	
6	0	0	0	0	506	510	0	466	31	0	
7	0	0	0	0	515	513	0	459	31	0	
8	0	0	0	0	515	512	0	418	31	0	
9	0	0	0	0	502	513	0	390	31	0	
10	0	0	0	0	508	514	0	378	31	0	
11	0	0	0	0	505	514	0	383	31	0	
12	0	0	0	0	513	513	1	415	31	0	
13	0	0	0	0	512	514	0	451	31	0	
14	0	0	0	0	519	513	0	469	31	0	
15	0	0	0	0	513	511	0	457	32	0	
0	0	0	0	0	515	509	0	430	31	0	
1	0	0	0	0	509	511	0	416	32	0	
2	0	0	0	0	507	511	0	441	32	0	
3	0	0	0	0	506	510	0	488	32	0	
4	0	0	0	0	508	512	1	528	32	0	
5	0	0	0	0	514	513	0	545	32	0	
6	0	0	0	0	506	514	0	538	32	0	
7	0	0	0	0	513	513	0	517	32	0	
8	0	0	0	0	509	513	0	474	32	0	
9	0	0	0	0	505	513	0	421	32	0	
10	0	0	0	0	508	512	0	363	32	0	
11	0	0	0	0	511	515	0	316	32	0	
12	0	0	0	0	511	514	1	297	32	0	
13	0	0	0	0	513	512	0	313	32	0	
14	0	0	0	0	511	512	0	371	32	0	
15	0	0	0	0	512	515	0	414	32	0	
0	0	0	0	0	512	515	1	433	32	0	
1	0	0	0	0	507	512	0	448	32	0	
2	0	0	0	0	504	511	0	482	32	0	
3	0	0	0	0	505	511	0	473	32	0	
4	0	0	0	0	515	511	1	444	32	0	
5	0	0	0	0	511	510	0	412	32	0	
6	0	0	0	0	521	511	0	411	32	0	
7	0	0	0	0	514	512	0	434	32	0	
8	0	0	0	0	513	512	1	487	32	0	
9	0	0	0	0	510	509	0	543	32	0	
10	0	0	0	0	510	509	0	608	32	0	
11	0	0	0	0	512	510	0	668	32	0	
12	0	0	0	0	511	508	1	711	32	0	
13	0	0	0	0	508	509	0	703	32	0	
14	0	0	0	0	510	508	0	630	32	0	
15	0	0	0	0	508	510	0	531	32	0	
0	0	0	0	0	507	511	1	435	32	0	
1	0	0	0	0	506	508	0	396	32	0	
2	0	0	0	0	508	511	0	389	32	0	
3	0	0	0	0	512	512	0	390	32	0	
4	0	0	0	0	506	512	1	416	32	0	
5	0	0	0	0	514	512	0	482	32	0	
6	0	0	0	0	512	511	0	565	32	0	
7	0	0	0	0	512	513	0	623	32	0	
8	0	0	0	0	510	512	0	640	32	0	
9	0	0	0	0	506	512	0	649	32	0	
10	0	0	0	0	509	511	0	652	32	0	
11	0	0	0	0	511	512	0	649	32	0	
12	0	0	0	0	509	512	1	625	32	0	
13	0	0	0	0	507	510	0	582	32	0	
14	0	0	0	0	514	511	0	537	32	0	
15	0	0	0	0	513	511	0	511	32	0	
0	0	0	0	0	509	512	1	498	32	0	
1	0	0	0	0	509	511	0	470	32	0	
2	0	0	0	0	513	512	0	413	32	0	
3	0	0	0	0	510	515	0	360	32	0	
4	0	0	0	0	508	515	1	321	32	0	
5	0	0	0	0	506	514	0	327	32	0	
6	0	0	0	0	513	514	0	332	32	0	
7	0	0	0	0	506	514	0	310	32	0	
8	0	0	0	0	507	514	1	275	32	0	
9	0	0	0	0	509	516	0	276	32	0	
10	0	0	0	0	513	515	0	296	32	0	
11	0	0	0	0	510	515	0	338	32	0	
12	0	0	0	0	511	515	1	370	32	0	
13	0	0	0	0	511	514	0	403	32	0	
14	0	0	0	0	506	513	0	437	32	0	
15	0	0	0	0	507	513	0	467	32	0	
0	0	0	0	0	515	513	1	476	32	0	
1	0	0	0	0	513	514	0	466	32	0	
2	0	0	0	0	513	515	0	468	32	0	
3	0	0	0	0	513	515	0	473	32	0	
4	0	0	0	0	511	515	0	459	32	0	
5	0	0	0	0	511	516	0	459	32	0	
6	0	0	0	0	510	515	0	473	32	0	
7	0	0	0	0	511	514	0	466	32	0	
8	0	0	0	0	512	513	1	444	32	0	
9	0	0	0	0	509	511	0	415	32	0	
10	0	0	0	0	506	512	0	376	32	0	
11	0	0	0	0	500	511	0	339	32	0	
12	0	0	0	0	505	513	1	336	32	0	
13	0	0	0	0	504	513	0	374	32	0	
14	0	0	0	0	515	513	0	450	32	0	
15	0	0	0	0	511	512	0	557	32	0	
0	0	0	0	0	511	511	0	664	32	0	
1	0	0	0	0	510	510	0	735	32	0	
2	0	0	0	0	511	508	0	743	32	0	
3	0	0	0	0	511	508	0	718	32	0	
4	0	0	0	0	509	507	1	729	32	0	
5	0	0	0	0	518	507	0	736	32	0	
6	0	0	0	0	518	508	0	689	32	0	
7	0	0	0	0	511	509	0	585	32	0	
8	0	0	0	0	502	509	0	443	32	0	
9	0	0	0	0	508	508	0	327	32	0	
10	0	0	0	0	510	508	0	296	32	0	
11	0	0	0	0	510	508	0	332	32	0	
12	0	0	0	0	506	511	1	392	32	0	
13	0	0	0	0	515	510	0	419	32	0	
14	0	0	0	0	514	511	0	449	32	0	
15	0	0	0	0	508	512	0	473	32	0	
0	0	0	0	0	512	512	1	500	32	0	
1	0	0	0	0	510	512	0	514	32	0	
2	0	0	0	0	509	512	0	500	32	0	
3	0	0	0	0	513	513	0	488	32	0	
4	0	0	0	0	510	512	1	516	32	0	
5	0	0	0	0	512	511	0	512	32	0	
6	0	0	0	0	509	512	0	462	32	0	
7	0	0	0	0	507	512	0	399	32	0	
8	0	0	0	0	512	511	0	324	32	0	
9	0	0	0	0	509	511	0	224	32	0	
10	0	0	0	0	510	512	0	111	32	0	
11	0	0	0	0	511	515	0	54	32	0	
12	0	0	0	0	508	513	0	56	32	0	
13	0	0	0	0	510	512	0	103	32	0	
14	0	0	0	0	512	512	0	180	32	0	
15	0	0	0	0	504	513	0	260	32	0	
0	0	0	0	0	508	513	0	311	32	0	
1	0	0	0	0	512	511	0	333	32	0	
2	0	0	0	0	508	511	0	361	32	0	
3	0	0	0	0	509	512	0	396	32	0	
4	0	0	0	0	506	510	1	430	32	0	
5	0	0	0	0	507	508	0	450	32	0	
6	0	0	0	0	513	507	0	451	32	0	
7	0	0	0	0	501	508	0	444	32	0	
8	0	0	0	0	506	508	0	398	32	0	
9	0	0	0	0	523	509	0	348	32	0	
10	0	0	0	0	516	509	0	312	32	0	
11	0	0	0	0	515	511	0	309	32	0	
12	0	0	0	0	502	511	1	329	32	0	
13	0	0	0	0	512	510	0	375	32	0	
14	0	0	0	0	509	510	0	419	32	0	
15	0	0	0	0	508	512	0	439	32	0	
0	0	0	0	0	510	511	0	440	32	0	
1	0	0	0	0	511	510	0	433	32	0	
2	0	0	0	0	514	511	0	416	32	0	
3	0	0	0	0	510	511	0	402	32	0	
4	0	0	0	0	505	510	0	380	32	0	
5	0	0	0	0	510	510	0	367	32	0	
6	0	0	0	0	508	509	0	382	32	0	
7	0	0	0	0	504	511	0	412	32	0	
8	0	0	0	0	513	512	1	464	32	0	
9	0	0	0	0	508	510	0	516	32	0	
10	0	0	0	0	510	510	0	545	32	0	
11	0	0	0	0	513	511	0	590	32	0	
12	0	0	0	0	515	512	1	615	32	0	
13	0	0	0	0	515	511	0	604	32	0	
14	0	0	0	0	503	511	0	556	32	0	
15	0	0	0	0	513	512	0	509	32	0	
0	0	0	0	0	506	511	0	462	32	0	
1	0	0	0	0	510	513	0	410	32	0	
2	0	0	0	0	513	513	0	391	32	0	
3	0	0	0	0	512	512	0	370	32	0	
4	0	0	0	0	504	512	1	328	32	0	
5	0	0	0	0	507	509	0	274	32	0	
6	0	0	0	0	512	511	0	239	32	0	
7	0	0	0	0	509	514	0	257	32	0	
8	0	0	0	0	506	513	0	331	32	0	
9	0	0	0	0	512	512	0	403	32	0	
10	0	0	0	0	506	512	0	459	32	0	
11	0	0	0	0	512	515	0	484	32	0	
12	0	0	0	0	508	514	1	487	32	0	
13	0	0	0	0	507	514	0	499	32	0	
14	0	0	0	0	513	515	0	547	32	0	
15	0	0	0	0	514	515	0	639	32	0	
0	0	0	0	0	512	512	0	732	32	0	
1	0	0	0	0	507	513	0	760	32	0	
2	0	0	0	0	510	514	0	725	32	0	
3	0	0	0	0	510	513	0	689	32	0	
4	0	0	0	0	503	512	0	648	32	0	
5	0	0	0	0	508	513	0	563	32	0	
6	0	0	0	0	516	514	0	451	32	0	
7	0	0	0	0	511	513	0	366	32	0	
8	0	0	0	0	511	514	1	304	32	0	
9	0	0	0	0	508	514	0	258	32	0	
10	0	0	0	0	512	512	0	241	32	0	
11	0	0	0	0	513	512	0	246	32	0	
12	0	0	0	0	513	512	1	291	32	0	
13	0	0	0	0	516	511	0	363	32	0	
14	0	0	0	0	504	512	0	410	32	0	
15	0	0	0	0	506	512	0	476	32	0	
0	0	0	0	0	508	511	1	563	32	0	
1	0	0	0	0	508	511	0	616	32	0	
2	0	0	0	0	513	513	0	629	32	0	
3	0	0	0	0	511	513	0	619	32	0	
4	0	0	0	0	509	512	0	613	32	0	
5	0	0	0	0	510	510	0	643	32	0	
6	0	0	0	0	511	512	0	671	32	0	
7	0	0	0	0	501	512	0	636	32	0	
8	0	0	0	0	509	512	1	544	32	0	
9	0	0	0	0	510	511	0	459	32	0	
10	0	0	0	0	513	512	0	423	32	0	
11	0	0	0	0	510	512	0	390	32	0	
12	0	0	0	0	512	510	0	343	32	0	
13	0	0	0	0	511	511	0	316	32	0	
14	0	0	0	0	512	511	0	345	32	0	
15	0	0	0	0	506	511	0	382	32	0	
0	0	0	0	0	514	510	0	408	32	0	
1	0	0	0	0	505	512	0	430	32	0	
2	0	0	0	0	507	513	0	475	32	0	
3	0	0	0	0	509	513	0	537	32	0	
4	0	0	0	0	508	513	1	564	32	0	
5	0	0	0	0	502	512	0	580	32	0	
6	0	0	0	0	513	511	0	620	32	0	
7	0	0	0	0	517	511	0	691	32	0	
8	0	0	0	0	504	511	1	785	32	0	
9	0	0	0	0	508	511	0	837	32	0	
10	0	0	0	0	506	511	0	726	32	0	
11	0	0	0	0	517	513	0	514	32	0	
12	0	0	0	0	511	515	1	348	32	0	
13	0	0	0	0	515	512	0	288	32	0	
14	0	0	0	0	515	513	0	351	32	0	
15	0	0	0	0	511	513	0	495	32	0	
0	0	0	0	0	508	515	1	644	32	0	
1	0	0	0	0	511	515	0	751	32	0	
2	0	0	0	0	507	515	0	792	32	0	
3	0	0	0	0	504	513	0	766	32	0	
4	0	0	0	0	507	513	0	645	32	0	
5	0	0	0	0	513	511	0	489	32	0	
6	0	0	0	0	510	512	0	364	32	0	
7	0	0	0	0	510	513	0	304	32	0	
8	0	0	0	0	515	514	1	307	32	0	
9	0	0	0	0	511	516	0	334	32	0	
10	0	0	0	0	513	514	0	389	32	0	
11	0	0	0	0	512	514	0	487	32	0	
12	0	0	0	0	518	514	1	602	32	0	
13	0	0	0	0	507	513	0	675	32	0	
14	0	0	0	0	508	513	0	649	32	0	
15	0	0	0	0	507	512	0	561	32	0	
0	0	0	0	0	503	513	1	467	32	0	
1	0	0	0	0	514	512	0	415	32	0	
2	0	0	0	0	515	514	0	398	32	0	
3	0	0	0	0	508	513	0	412	32	0	
4	0	0	0	0	514	514	1	416	32	0	
5	0	0	0	0	510	513	0	395	32	0	
6	0	0	0	0	506	513	0	388	32	0	
7	0	0	0	0	509	514	0	382	32	0	
8	0	0	0	0	508	515	1	365	32	0	
9	0	0	0	0	506	515	0	353	32	0	
10	0	0	0	0	515	515	0	370	32	0	
11	0	0	0	0	512	515	0	402	32	0	
12	0	0	0	0	512	515	1	428	32	0	
13	0	0	0	0	508	516	0	454	32	0	
14	0	0	0	0	511	517	0	492	32	0	
15	0	0	0	0	505	518	0	519	32	0	
0	0	0	0	0	513	518	1	511	32	0	
1	0	0	0	0	510	517	0	459	32	0	
2	0	0	0	0	507	515	0	397	32	0	
3	0	0	0	0	508	515	0	365	32	0	
4	0	0	0	0	511	516	1	393	32	0	
5	0	0	0	0	513	515	0	489	32	0	
6	0	0	0	0	508	514	0	631	32	0	
7	0	0	0	0	511	515	0	743	32	0	
8	0	0	0	0	511	513	1	856	32	0	
9	0	0	0	0	513	512	0	943	32	0	
10	0	0	0	0	515	512	0	990	32	0	
11	0	0	0	0	511	515	0	960	32	0	
12	0	0	0	0	505	515	1	844	32	0	
13	0	0	0	0	506	515	0	700	32	0	
14	0	0	0	0	508	515	0	530	32	0	
15	0	0	0	0	508	515	0	401	32	0	
0	0	0	0	0	508	514	1	378	32	0	
1	0	0	0	0	510	514	0	385	32	0	
2	0	0	0	0	512	513	0	392	32	0	
3	0	0	0	0	513	515	0	410	32	0	
4	0	0	0	0	507	514	1	456	32	0	
5	0	0	0	0	515	512	0	514	32	0	
6	0	0	0	0	508	513	0	587	32	0	
7	0	0	0	0	510	514	0	667	32	0	
8	0	0	0	0	511	513	1	712	32	0	
9	0	0	0	0	505	511	0	714	32	0	
10	0	0	0	0	511	511	0	669	32	0	
11	0	0	0	0	513	512	0	615	32	0	
12	0	0	0	0	511	513	1	574	32	0	
13	0	0	0	0	510	512	0	539	32	0	
14	0	0	0	0	508	513	0	486	32	0	
15	0	0	0	0	506	515	0	415	32	0	
0	0	0	0	0	508	514	1	355	32	0	
1	0	0	0	0	509	514	0	308	32	0	
2	0	0	0	0	508	513	0	274	32	0	
3	0	0	0	0	511	515	0	271	32	0	
4	0	0	0	0	512	514	0	284	32	0	
5	0	0	0	0	505	513	0	336	32	0	
6	0	0	0	0	512	512	0	421	32	0	
7	0	0	0	0	509	513	0	544	32	0	
8	0	0	0	0	515	512	0	703	32	0	
9	0	0	0	0	514	513	0	862	32	0	
10	0	0	0	0	515	513	0	977	32	0	
11	0	0	0	0	512	512	0	1018	32	0	
12	0	0	0	0	510	511	1	1019	32	0	
13	0	0	0	0	503	512	0	1018	32	0	
14	0	0	0	0	507	515	0	918	32	0	
15	0	0	0	0	511	516	0	725	32	0	
0	0	0	0	0	506	514	0	524	32	0	
1	0	0	0	0	511	512	0	389	32	0	
2	0	0	0	0	506	514	0	325	32	0	
3	0	0	0	0	513	514	0	319	32	0	
4	0	0	0	0	511	513	0	347	32	0	
5	0	0	0	0	508	513	0	389	32	0	
6	0	0	0	0	504	515	0	415	32	0	
7	0	0	0	0	513	515	0	403	32	0	
8	0	0	0	0	508	516	1	386	32	0	
9	0	0	0	0	508	515	0	408	32	0	
10	0	0	0	0	507	516	0	459	32	0	
11	0	0	0	0	510	518	0	500	32	0	
12	0	0	0	0	512	519	0	529	32	0	
13	0	0	0	0	510	515	0	532	32	0	
14	0	0	0	0	513	515	0	537	32	0	
15	0	0	0	0	509	514	0	579	32	0	
0	0	0	0	0	517	512	0	647	32	0	
1	0	0	0	0	505	513	0	715	32	0	
2	0	0	0	0	509	516	0	776	32	0	
3	0	0	0	0	515	515	0	828	32	0	
4	0	0	0	0	515	515	1	843	32	0	
5	0	0	0	0	510	512	0	809	31	0	
6	0	0	0	0	508	511	0	709	32	0	
7	0	0	0	0	506	512	0	632	31	0	
8	0	0	0	0	507	512	0	533	31	0	
9	0	0	0	0	512	510	0	459	31	0	
10	0	0	0	0	516	510	0	398	31	0	
11	0	0	0	0	514	512	0	383	31	0	
12	0	0	0	0	504	511	1	403	31	0	
13	0	0	0	0	507	510	0	472	31	0	
14	0	0	0	0	506	511	0	525	31	0	
15	0	0	0	0	508	512	0	529	31	0	
0	0	0	0	0	512	512	1	540	31	0	
1	0	0	0	0	510	513	0	594	31	0	
2	0	0	0	0	515	513	0	689	31	0	
3	0	0	0	0	509	514	0	782	31	0	
4	0	0	0	0	515	514	1	835	31	0	
5	0	0	0	0	506	513	0	870	31	0	
6	0	0	0	0	507	516	0	899	31	0	
7	0	0	0	0	507	516	0	909	31	0	
8	0	0	0	0	508	516	1	919	31	0	
9	0	0	0	0	511	515	0	893	31	0	
10	0	0	0	0	513	514	0	836	31	0	
11	0	0	0	0	510	516	0	742	31	0	
12	0	0	0	0	507	518	1	627	31	0	
13	0	0	0	0	515	516	0	523	31	0	
14	0	0	0	0	512	516	0	445	31	0	
15	0	0	0	0	519	516	0	400	31	0	
0	0	0	0	0	511	515	1	353	31	0	
1	0	0	0	0	509	514	0	314	31	0	
2	0	0	0	0	508	513	0	312	31	0	
3	0	0	0	0	513	512	0	368	31	0	
4	0	0	0	0	513	513	1	452	31	0	
5	0	0	0	0	511	514	0	508	31	0	
6	0	0	0	0	514	515	0	551	31	0	
7	0	0	0	0	506	513	0	563	31	0	
8	0	0	0	0	511	512	1	551	31	0	
9	0	0	0	0	500	511	0	523	31	0	
10	0	0	0	0	509	511	0	515	31	0	
11	0	0	0	0	508	514	0	521	31	0	
12	0	0	0	0	514	515	0	548	31	0	
13	0	0	0	0	506	513	0	572	31	0	
14	0	0	0	0	508	513	0	585	31	0	
15	0	0	0	0	517	512	0	600	31	0	
0	0	0	0	0	515	513	1	600	31	0	
1	0	0	0	0	513	511	0	607	31	0	
2	0	0	0	0	509	512	0	588	31	0	
3	0	0	0	0	509	513	0	555	31	0	
4	0	0	0	0	507	512	1	534	31	0	
5	0	0	0	0	513	511	0	548	31	0	
6	0	0	0	0	507	511	0	603	31	0	
7	0	0	0	0	508	513	0	660	31	0	
8	0	0	0	0	512	515	1	716	31	0	
9	0	0	0	0	513	513	0	750	31	0	
10	0	0	0	0	502	515	0	739	31	0	
11	0	0	0	0	508	517	0	690	31	0	
12	0	0	0	0	515	515	0	645	31	0	
13	0	0	0	0	509	515	0	605	31	0	
14	0	0	0	0	514	514	0	551	31	0	
15	0	0	0	0	516	514	0	500	31	0	
0	0	0	0	0	508	515	1	481	31	0	
1	0	0	0	0	508	515	0	486	31	0	
2	0	0	0	0	513	515	0	491	31	0	
3	0	0	0	0	515	515	0	484	31	0	
4	0	0	0	0	506	515	0	492	31	0	
5	0	0	0	0	509	513	0	509	31	0	
6	0	0	0	0	510	512	0	533	31	0	
7	0	0	0	0	513	512	0	603	31	0	
8	0	0	0	0	501	512	1	667	31	0	
9	0	0	0	0	512	511	0	669	31	0	
10	0	0	0	0	512	511	0	630	31	0	
11	0	0	0	0	510	513	0	606	31	0	
12	0	0	0	0	504	513	0	596	31	0	
13	0	0	0	0	511	512	0	593	32	0	
14	0	0	0	0	508	511	0	630	31	0	
15	0	0	0	0	512	512	0	702	31	0	
0	0	0	0	0	509	511	1	769	31	0	
1	0	0	0	0	511	513	0	807	31	0	
2	0	0	0	0	515	515	0	802	31	0	
3	0	0	0	0	515	515	0	772	31	0	
4	0	0	0	0	508	515	1	739	32	0	
5	0	0	0	0	509	514	0	709	31	0	
6	0	0	0	0	513	513	0	691	31	0	
7	0	0	0	0	510	513	0	673	31	0	
8	0	0	0	0	508	514	1	639	32	0	
9	0	0	0	0	516	513	0	611	31	0	
10	0	0	0	0	516	513	0	590	32	0	
11	0	0	0	0	503	514	0	605	31	0	
12	0	0	0	0	512	515	1	636	31	0	
13	0	0	0	0	505	513	0	629	31	0	
14	0	0	0	0	512	512	0	575	31	0	
15	0	0	0	0	507	513	0	511	31	0	
0	0	0	0	0	504	511	0	455	31	0	
1	0	0	0	0	506	511	0	436	31	0	
2	0	0	0	0	506	512	0	459	31	0	
3	0	0	0	0	509	510	0	509	31	0	
4	0	0	0	0	513	510	0	575	31	0	
5	0	0	0	0	510	511	0	635	31	0	
6	0	0	0	0	507	511	0	684	31	0	
7	0	0	0	0	510	514	0	746	31	0	
8	0	0	0	0	505	514	1	808	31	0	
9	0	0	0	0	511	513	0	819	31	0	
10	0	0	0	0	511	514	0	752	31	0	
11	0	0	0	0	516	515	0	646	31	0	
12	0	0	0	0	517	515	1	521	31	0	
13	0	0	0	0	514	513	0	456	31	0	
14	0	0	0	0	505	513	0	458	31	0	
15	0	0	0	0	511	514	0	514	31	0	
0	0	0	0	0	507	513	1	620	31	0	
1	0	0	0	0	509	512	0	741	31	0	
2	0	0	0	0	508	513	0	849	31	0	
3	0	0	0	0	510	515	0	923	31	0	
4	0	0	0	0	507	513	1	933	31	0	
5	0	0	0	0	508	512	0	915	31	0	
6	0	0	0	0	504	511	0	913	31	0	
7	0	0	0	0	509	512	0	937	31	0	
8	0	0	0	0	509	512	1	942	31	0	
9	0	0	0	0	515	510	0	937	31	0	
10	0	0	0	0	511	510	0	960	31	0	
11	0	0	0	0	514	512	0	978	31	0	
12	0	0	0	0	513	511	1	964	31	0	
13	0	0	0	0	505	510	0	938	31	0	
14	0	0	0	0	504	510	0	935	31	0	
15	0	0	0	0	511	512	0	937	31	0	
0	0	0	0	0	511	511	1	927	31	0	
1	0	0	0	0	508	510	0	914	31	0	
2	0	0	0	0	514	512	0	918	31	0	
3	0	0	0	0	515	512	0	950	31	0	
4	0	0	0	0	508	511	1	993	31	0	
5	0	0	0	0	511	512	0	1018	31	0	
6	0	0	0	0	513	513	0	1018	31	0	
7	0	0	0	0	511	513	0	1018	31	0	
8	0	0	0	0	513	513	1	1019	32	0	
9	0	0	0	0	509	514	0	1018	31	0	
10	0	0	0	0	512	515	0	1018	31	0	
11	0	0	0	0	511	516	0	1018	32	0	
12	0	0	0	0	510	516	1	1019	32	0	
13	0	0	0	0	514	515	0	992	32	0	
14	0	0	0	0	505	514	0	992	32	0	
15	0	0	0	0	506	513	0	1000	32	0	
0	0	0	0	0	504	513	1	979	31	0	
1	0	0	0	0	506	511	0	952	32	0	
2	0	0	0	0	515	511	0	935	32	0	
3	0	0	0	0	512	511	0	913	32	0	
4	0	0	0	0	511	511	1	905	32	0	
5	0	0	0	0	508	511	0	880	32	0	
6	0	0	0	0	511	512	0	828	32	0	
7	0	0	0	0	507	514	0	811	32	0	
8	0	0	0	0	513	512	1	817	32	0	
9	0	0	0	0	516	512	0	801	32	0	
10	0	0	0	0	508	513	0	754	32	0	
11	0	0	0	0	515	513	0	694	32	0	
12	0	0	0	0	506	514	1	671	32	0	
13	0	0	0	0	511	513	0	691	32	0	
14	0	0	0	0	508	512	0	752	32	0	
15	0	0	0	0	513	514	0	827	32	0	
0	0	0	0	0	514	514	1	929	32	0	
1	0	0	0	0	513	512	0	1018	32	0	
2	0	0	0	0	507	512	0	1018	32	0	
3	0	0	0	0	511	511	0	1018	32	0	
4	0	0	0	0	501	511	1	1018	32	0	
5	0	0	0	0	518	510	0	1018	32	0	
6	0	0	0	0	507	510	0	1018	32	0	
7	0	0	0	0	508	512	0	871	32	0	
8	0	0	0	0	516	513	1	783	32	0	
9	0	0	0	0	504	511	0	721	32	0	
10	0	0	0	0	504	512	0	661	32	0	
11	0	0	0	0	517	512	0	586	32	0	
12	0	0	0	0	505	511	1	536	32	0	
13	0	0	0	0	504	510	0	578	32	0	
14	0	0	0	0	515	512	0	693	32	0	
15	0	0	0	0	519	513	0	868	32	0	
0	0	0	0	0	513	514	1	1019	32	0	
1	0	0	0	0	515	512	0	1018	32	0	
2	0	0	0	0	504	511	0	1018	32	0	
3	0	0	0	0	505	512	0	1018	32	0	
4	0	0	0	0	513	511	1	1019	32	0	
5	0	0	0	0	503	513	0	901	32	0	
6	0	0	0	0	507	512	0	818	32	0	
7	0	0	0	0	505	513	0	772	32	0	
8	0	0	0	0	509	512	1	780	32	0	
9	0	0	0	0	515	512	0	851	32	0	
10	0	0	0	0	512	515	0	969	32	0	
11	0	0	0	0	512	514	0	1018	32	0	
12	0	0	0	0	509	515	1	1018	32	0	
13	0	0	0	0	510	514	0	1018	32	0	
14	0	0	0	0	507	514	0	1018	32	0	
15	0	0	0	0	509	513	0	1018	32	0	
0	0	0	0	0	508	514	2	1019	32	0	
1	0	0	0	0	513	512	0	1018	32	0	
2	0	0	0	0	513	513	0	712	32	0	
3	0	0	0	0	511	512	0	478	32	0	
4	0	0	0	0	513	512	1	358	32	0	
5	0	0	0	0	510	511	0	317	32	0	
6	0	0	0	0	511	511	0	326	32	0	
7	0	0	0	0	511	511	0	362	32	0	
8	0	0	0	0	510	512	1	422	32	0	
9	0	0	0	0	510	511	0	518	32	0	
10	0	0	0	0	512	513	0	636	32	0	
11	0	0	0	0	511	513	0	758	32	0	
12	0	0	0	0	513	513	1	851	32	0	
13	0	0	0	0	508	512	0	871	32	0	
14	0	0	0	0	505	512	0	827	32	0	
15	0	0	0	0	508	514	0	744	32	0	
0	0	0	0	0	505	512	0	652	32	0	
1	0	0	0	0	515	512	0	683	32	0	
2	0	0	0	0	511	511	0	809	32	0	
3	0	0	0	0	515	512	0	1004	32	0	
4	0	0	0	0	510	511	1	1018	32	0	
5	0	0	0	0	501	511	0	1018	32	0	
6	0	0	0	0	514	513	0	1018	32	0	
7	0	0	0	0	506	513	0	1018	32	0	
8	0	0	0	0	511	512	1	1018	32	0	
9	0	0	0	0	513	512	0	1018	32	0	
10	0	0	0	0	515	511	0	658	32	0	
11	0	0	0	0	511	513	0	458	32	0	
12	0	0	0	0	504	513	1	359	32	0	
13	0	0	0	0	504	511	0	308	32	0	
14	0	0	0	0	514	513	0	283	32	0	
15	0	0	0	0	514	512	0	268	32	0	
0	0	0	0	0	515	512	1	263	32	0	
1	0	0	0	0	508	510	0	272	32	0	
2	0	0	0	0	508	510	0	305	32	0	
3	0	0	0	0	504	512	0	345	32	0	
4	0	0	0	0	511	514	1	392	32	0	
5	0	0	0	0	510	513	0	450	32	0	
6	0	0	0	0	508	512	0	535	32	0	
7	0	0	0	0	510	510	0	596	32	0	
8	0	0	0	0	510	511	1	581	32	0	
9	0	0	0	0	518	509	0	470	32	0	
10	0	0	0	0	515	510	0	321	32	0	
11	0	0	0	0	511	511	0	291	32	0	
12	0	0	0	0	515	509	1	370	32	0	
13	0	0	0	0	504	509	0	534	32	0	
14	0	0	0	0	508	509	0	748	32	0	
15	0	0	0	0	512	509	0	924	32	0	
0	0	0	0	0	507	510	1	970	32	0	
1	0	0	0	0	505	508	0	809	32	0	
2	0	0	0	0	506	508	0	507	32	0	
3	0	0	0	0	510	509	0	264	32	0	
4	0	0	0	0	504	508	1	181	32	0	
5	0	0	0	0	508	509	0	230	32	0	
6	0	0	0	0	513	509	0	288	32	0	
7	0	0	0	0	516	512	0	302	32	0	
8	0	0	0	0	501	512	0	303	32	0	
9	0	0	0	0	512	513	0	353	32	0	
10	0	0	0	0	509	513	0	476	32	0	
11	0	0	0	0	510	513	0	608	32	0	
12	0	0	0	0	511	514	1	713	32	0	
13	0	0	0	0	511	514	0	781	32	0	
14	0	0	0	0	506	513	0	806	32	0	
15	0	0	0	0	511	513	0	769	32	0	
0	0	0	0	0	514	512	0	671	32	0	
1	0	0	0	0	509	514	0	542	32	0	
2	0	0	0	0	512	515	0	442	32	0	
3	0	0	0	0	507	515	0	378	32	0	
4	0	0	0	0	510	514	1	339	32	0	
5	0	0	0	0	510	514	0	331	32	0	
6	0	0	0	0	511	514	0	393	32	0	
7	0	0	0	0	512	514	0	499	32	0	
8	0	0	0	0	512	514	1	580	32	0	
9	0	0	0	0	507	515	0	626	32	0	
10	0	0	0	0	512	516	0	632	32	0	
11	0	0	0	0	508	516	0	608	32	0	
12	0	0	0	0	512	515	1	631	32	0	
13	0	0	0	0	510	513	0	644	32	0	
14	0	0	0	0	517	513	0	646	32	0	
15	0	0	0	0	512	513	0	612	32	0	
0	0	0	0	0	509	512	1	550	32	0	
1	0	0	0	0	505	508	0	488	32	0	
2	0	0	0	0	506	508	0	470	32	0	
3	0	0	0	0	509	508	0	519	32	0	
4	0	0	0	0	515	511	1	580	32	0	
5	0	0	0	0	511	510	0	665	32	0	
6	0	0	0	0	508	509	0	727	32	0	
7	0	0	0	0	513	514	0	748	32	0	
8	0	0	0	0	513	511	0	767	32	0	
9	0	0	0	0	507	511	0	768	32	0	
10	0	0	0	0	504	512	0	751	32	0	
11	0	0	0	0	511	513	0	718	32	0	
12	0	0	0	0	516	512	1	717	32	0	
13	0	0	0	0	508	513	0	732	32	0	
14	0	0	0	0	519	511	0	683	32	0	
15	0	0	0	0	511	512	0	588	32	0	
0	0	0	0	0	500	513	1	505	32	0	
1	0	0	0	0	511	511	0	461	32	0	
2	0	0	0	0	513	514	0	457	32	0	
3	0	0	0	0	511	513	0	503	32	0	
4	0	0	0	0	511	511	1	576	32	0	
5	0	0	0	0	508	512	0	650	32	0	
6	0	0	0	0	510	513	0	719	32	0	
7	0	0	0	0	512	514	0	763	32	0	
8	0	0	0	0	508	514	0	812	32	0	
9	0	0	0	0	509	515	0	847	32	0	
10	0	0	0	0	511	515	0	856	32	0	
11	0	0	0	0	512	515	0	812	32	0	
12	0	0	0	0	507	515	1	725	32	0	
13	0	0	0	0	510	514	0	645	32	0	
14	0	0	0	0	512	515	0	569	32	0	
15	0	0	0	0	518	513	0	515	32	0	
0	0	0	0	0	505	513	1	484	32	0	
1	0	0	0	0	512	512	0	480	32	0	
2	0	0	0	0	512	512	0	496	32	0	
3	0	0	0	0	509	514	0	551	32	0	
4	0	0	0	0	512	515	1	610	32	0	
5	0	0	0	0	511	516	0	589	32	0	
6	0	0	0	0	513	516	0	536	32	0	
7	0	0	0	0	507	516	0	481	32	0	
8	0	0	0	0	510	517	0	461	32	0	
9	0	0	0	0	507	516	0	483	32	0	
10	0	0	0	0	503	517	0	520	32	0	
11	0	0	0	0	503	516	0	564	32	0	
12	0	0	0	0	515	515	0	593	32	0	
