# OpenSignals Text File Format. Version 1
# {"84:BA:20:AE:BF:DA": {"position": 0, "device": "bitalino_rev", "device name": "84:BA:20:AE:BF:DA", "device connection": "BTH84:BA:20:AE:BF:DA", "sampling rate": 1000, "resolution": [4, 1, 1, 1, 1, 10, 10, 10, 10, 6, 6], "firmware version": 1282, "comments": "", "keywords": "", "mode": 0, "sync interval": 2, "date": "2025-11-16", "time": "18:10:30.484", "channels": [1, 2, 3, 4, 5, 6], "sensor": ["RAW", "RAW", "RAW", "RAW", "RAW", "RAW"], "label": ["A1", "A2", "A3", "A4", "A5", "A6"], "column": ["nSeq", "I1", "I2", "O1", "O2", "A1", "A2", "A3", "A4", "A5", "A6"], "special": [{}, {}, {}, {}, {}, {}], "digital IO": [0, 0, 1, 1], "convertedValues": 0}}
# EndOfHeader
0	0	0	0	0	510	514	0	409	31	0	
1	0	0	0	0	512	514	0	403	31	0	
2	0	0	0	0	515	515	0	406	31	0	
3	0	0	0	0	514	514	0	413	31	0	
4	0	0	0	0	507	512	0	412	31	0	
5	0	0	0	0	505	515	0	407	32	0	
6	0	0	0	0	509	516	0	411	32	0	
7	0	0	0	0	513	516	0	419	32	0	
8	0	0	0	0	508	514	0	429	32	0	
9	0	0	0	0	508	516	0	435	32	0	
10	0	0	0	0	520	514	0	421	32	0	
11	0	0	0	0	507	514	0	388	32	0	
12	0	0	0	0	505	512	1	361	32	0	
13	0	0	0	0	514	512	0	349	31	0	
14	0	0	0	0	511	512	0	347	31	0	
15	0	0	0	0	509	511	0	337	31	0	
0	0	0	0	0	511	513	0	326	31	0	
1	0	0	0	0	505	512	0	326	31	0	
2	0	0	0	0	510	513	0	335	31	0	
3	0	0	0	0	504	513	0	352	31	0	
4	0	0	0	0	515	511	1	375	31	0	
5	0	0	0	0	510	511	0	399	31	0	
6	0	0	0	0	513	511	0	421	31	0	
7	0	0	0	0	506	512	0	448	31	0	
8	0	0	0	0	504	511	1	475	31	0	
9	0	0	0	0	509	511	0	491	31	0	
10	0	0	0	0	510	512	0	489	32	0	
11	0	0	0	0	513	511	0	484	32	0	
12	0	0	0	0	512	511	1	484	32	0	
13	0	0	0	0	510	511	0	496	32	0	
14	0	0	0	0	511	511	0	517	31	0	
15	0	0	0	0	515	513	0	529	32	0	
0	0	0	0	0	513	513	1	530	31	0	
1	0	0	0	0	510	513	0	522	32	0	
2	0	0	0	0	510	511	0	514	32	0	
3	0	0	0	0	508	511	0	514	32	0	
4	0	0	0	0	510	511	0	516	32	0	
5	0	0	0	0	515	511	0	514	32	0	
6	0	0	0	0	509	513	0	515	31	0	
7	0	0	0	0	508	513	0	521	32	0	
8	0	0	0	0	505	512	1	526	32	0	
9	0	0	0	0	513	511	0	527	32	0	
10	0	0	0	0	512	511	0	521	32	0	
11	0	0	0	0	514	511	0	508	32	0	
12	0	0	0	0	505	512	1	497	32	0	
13	0	0	0	0	508	510	0	491	32	0	
14	0	0	0	0	506	511	0	483	31	0	
15	0	0	0	0	514	512	0	471	31	0	
0	0	0	0	0	508	509	0	446	32	0	
1	0	0	0	0	504	510	0	428	32	0	
2	0	0	0	0	511	510	0	422	32	0	
3	0	0	0	0	512	513	0	423	32	0	
4	0	0	0	0	512	511	0	419	32	0	
5	0	0	0	0	508	512	0	408	32	0	
6	0	0	0	0	508	510	0	418	31	0	
7	0	0	0	0	515	510	0	423	32	0	
8	0	0	0	0	512	512	1	446	31	0	
9	0	0	0	0	514	512	0	474	32	0	
10	0	0	0	0	516	513	0	495	32	0	
11	0	0	0	0	506	513	0	499	32	0	
12	0	0	0	0	513	512	0	491	32	0	
13	0	0	0	0	517	512	0	480	32	0	
14	0	0	0	0	509	513	0	469	32	0	
15	0	0	0	0	508	513	0	460	32	0	
0	0	0	0	0	508	512	0	454	32	0	
1	0	0	0	0	510	512	0	445	32	0	
2	0	0	0	0	507	511	0	427	32	0	
3	0	0	0	0	510	513	0	404	32	0	
4	0	0	0	0	514	514	1	385	32	0	
5	0	0	0	0	514	513	0	376	32	0	
6	0	0	0	0	507	512	0	369	31	0	
7	0	0	0	0	504	512	0	374	32	0	
8	0	0	0	0	504	513	0	387	32	0	
9	0	0	0	0	507	512	0	391	32	0	
10	0	0	0	0	511	513	0	391	32	0	
11	0	0	0	0	509	513	0	396	32	0	
12	0	0	0	0	514	512	1	411	32	0	
13	0	0	0	0	508	510	0	395	32	0	
14	0	0	0	0	511	509	0	390	31	0	
15	0	0	0	0	507	509	0	384	31	0	
0	0	0	0	0	513	508	0	383	31	0	
1	0	0	0	0	511	508	0	377	31	0	
2	0	0	0	0	510	507	0	371	32	0	
3	0	0	0	0	518	508	0	363	31	0	
4	0	0	0	0	514	510	0	350	32	0	
5	0	0	0	0	509	510	0	343	32	0	
6	0	0	0	0	502	511	0	340	31	0	
7	0	0	0	0	513	511	0	339	31	0	
8	0	0	0	0	505	512	1	348	31	0	
9	0	0	0	0	508	509	0	352	32	0	
10	0	0	0	0	508	511	0	346	32	0	
11	0	0	0	0	512	512	0	355	31	0	
12	0	0	0	0	504	512	1	372	31	0	
13	0	0	0	0	511	512	0	388	31	0	
14	0	0	0	0	511	510	0	403	31	0	
15	0	0	0	0	512	510	0	411	31	0	
0	0	0	0	0	515	508	1	416	31	0	
1	0	0	0	0	512	510	0	419	32	0	
2	0	0	0	0	511	510	0	418	32	0	
3	0	0	0	0	510	511	0	422	32	0	
4	0	0	0	0	510	511	1	422	32	0	
5	0	0	0	0	507	509	0	410	31	0	
6	0	0	0	0	508	508	0	387	31	0	
7	0	0	0	0	510	511	0	361	32	0	
8	0	0	0	0	509	512	0	340	31	0	
9	0	0	0	0	515	511	0	324	32	0	
10	0	0	0	0	503	512	0	309	32	0	
11	0	0	0	0	513	514	0	300	31	0	
12	0	0	0	0	511	512	1	290	32	0	
13	0	0	0	0	513	511	0	290	32	0	
14	0	0	0	0	522	511	0	294	31	0	
15	0	0	0	0	508	510	0	298	31	0	
0	0	0	0	0	510	511	0	297	31	0	
1	0	0	0	0	502	509	0	286	32	0	
2	0	0	0	0	509	509	0	280	32	0	
3	0	0	0	0	509	510	0	274	32	0	
4	0	0	0	0	509	510	0	270	32	0	
5	0	0	0	0	511	510	0	273	32	0	
6	0	0	0	0	512	510	0	295	31	0	
7	0	0	0	0	512	510	0	316	32	0	
8	0	0	0	0	509	509	0	325	32	0	
9	0	0	0	0	507	510	0	338	32	0	
10	0	0	0	0	511	512	0	344	32	0	
11	0	0	0	0	509	515	0	339	32	0	
12	0	0	0	0	512	516	1	335	32	0	
13	0	0	0	0	507	513	0	325	32	0	
14	0	0	0	0	514	513	0	315	31	0	
15	0	0	0	0	515	515	0	319	32	0	
0	0	0	0	0	510	513	1	332	31	0	
1	0	0	0	0	500	511	0	354	32	0	
2	0	0	0	0	508	512	0	370	32	0	
3	0	0	0	0	518	513	0	388	32	0	
4	0	0	0	0	509	510	0	384	32	0	
5	0	0	0	0	510	511	0	388	32	0	
6	0	0	0	0	513	511	0	387	31	0	
7	0	0	0	0	511	513	0	393	32	0	
8	0	0	0	0	511	512	1	399	32	0	
9	0	0	0	0	512	512	0	400	32	0	
10	0	0	0	0	506	511	0	393	32	0	
11	0	0	0	0	510	512	0	385	32	0	
12	0	0	0	0	507	514	1	377	32	0	
13	0	0	0	0	506	512	0	374	32	0	
14	0	0	0	0	511	511	0	363	31	0	
15	0	0	0	0	514	511	0	348	32	0	
0	0	0	0	0	510	511	0	334	31	0	
1	0	0	0	0	513	512	0	345	32	0	
2	0	0	0	0	513	512	0	368	32	0	
3	0	0	0	0	511	511	0	389	32	0	
4	0	0	0	0	513	511	1	400	31	0	
5	0	0	0	0	508	511	0	400	31	0	
6	0	0	0	0	505	511	0	398	31	0	
7	0	0	0	0	512	509	0	398	31	0	
8	0	0	0	0	516	508	0	403	32	0	
9	0	0	0	0	510	510	0	413	32	0	
10	0	0	0	0	509	509	0	432	32	0	
11	0	0	0	0	510	510	0	450	32	0	
12	0	0	0	0	502	509	1	462	32	0	
13	0	0	0	0	509	508	0	474	32	0	
14	0	0	0	0	517	510	0	488	31	0	
15	0	0	0	0	507	511	0	491	31	0	
0	0	0	0	0	511	510	1	485	32	0	
1	0	0	0	0	508	510	0	479	32	0	
2	0	0	0	0	505	511	0	475	32	0	
3	0	0	0	0	516	512	0	469	32	0	
4	0	0	0	0	498	511	0	461	32	0	
5	0	0	0	0	508	510	0	454	31	0	
6	0	0	0	0	512	512	0	451	31	0	
7	0	0	0	0	518	513	0	450	32	0	
8	0	0	0	0	510	514	1	446	31	0	
9	0	0	0	0	510	514	0	441	31	0	
10	0	0	0	0	510	513	0	425	32	0	
11	0	0	0	0	510	513	0	410	31	0	
12	0	0	0	0	509	512	0	406	32	0	
13	0	0	0	0	505	510	0	408	32	0	
14	0	0	0	0	516	510	0	410	31	0	
15	0	0	0	0	517	511	0	412	32	0	
0	0	0	0	0	505	510	1	408	31	0	
1	0	0	0	0	503	511	0	405	31	0	
2	0	0	0	0	520	512	0	409	32	0	
3	0	0	0	0	511	512	0	415	31	0	
4	0	0	0	0	514	512	1	416	32	0	
5	0	0	0	0	511	511	0	409	31	0	
6	0	0	0	0	512	510	0	399	31	0	
7	0	0	0	0	511	510	0	394	31	0	
8	0	0	0	0	511	510	0	387	31	0	
9	0	0	0	0	510	510	0	387	31	0	
10	0	0	0	0	512	510	0	389	32	0	
11	0	0	0	0	510	511	0	391	32	0	
12	0	0	0	0	508	512	1	390	32	0	
13	0	0	0	0	512	511	0	402	31	0	
14	0	0	0	0	505	512	0	420	31	0	
15	0	0	0	0	506	512	0	433	31	0	
0	0	0	0	0	510	511	1	441	31	0	
1	0	0	0	0	510	508	0	447	32	0	
2	0	0	0	0	507	510	0	447	32	0	
3	0	0	0	0	511	511	0	449	32	0	
4	0	0	0	0	508	511	1	460	32	0	
5	0	0	0	0	510	511	0	473	32	0	
6	0	0	0	0	512	510	0	465	31	0	
7	0	0	0	0	512	511	0	438	32	0	
8	0	0	0	0	515	512	1	409	31	0	
9	0	0	0	0	511	510	0	388	32	0	
10	0	0	0	0	508	511	0	371	32	0	
11	0	0	0	0	507	513	0	352	32	0	
12	0	0	0	0	520	513	1	340	32	0	
13	0	0	0	0	509	512	0	349	32	0	
14	0	0	0	0	504	513	0	378	31	0	
15	0	0	0	0	502	514	0	426	31	0	
0	0	0	0	0	513	513	1	480	31	0	
1	0	0	0	0	513	514	0	529	31	0	
2	0	0	0	0	515	513	0	565	32	0	
3	0	0	0	0	509	513	0	582	31	0	
4	0	0	0	0	509	514	0	585	32	0	
5	0	0	0	0	507	513	0	597	31	0	
6	0	0	0	0	514	512	0	622	31	0	
7	0	0	0	0	511	514	0	652	31	0	
8	0	0	0	0	513	514	1	684	32	0	
9	0	0	0	0	510	513	0	711	32	0	
10	0	0	0	0	508	512	0	726	32	0	
11	0	0	0	0	504	513	0	749	32	0	
12	0	0	0	0	508	510	1	780	32	0	
13	0	0	0	0	507	510	0	808	32	0	
14	0	0	0	0	515	512	0	837	31	0	
15	0	0	0	0	511	512	0	869	32	0	
0	0	0	0	0	507	512	1	908	32	0	
1	0	0	0	0	511	512	0	935	31	0	
2	0	0	0	0	518	513	0	950	32	0	
3	0	0	0	0	505	513	0	963	31	0	
4	0	0	0	0	509	514	1	971	32	0	
5	0	0	0	0	508	512	0	976	31	0	
6	0	0	0	0	510	511	0	975	31	0	
7	0	0	0	0	503	511	0	960	31	0	
8	0	0	0	0	510	512	1	942	31	0	
9	0	0	0	0	512	512	0	929	32	0	
10	0	0	0	0	511	512	0	926	32	0	
11	0	0	0	0	513	512	0	928	32	0	
12	0	0	0	0	509	511	1	929	32	0	
13	0	0	0	0	511	512	0	924	31	0	
14	0	0	0	0	510	512	0	913	31	0	
15	0	0	0	0	504	511	0	906	31	0	
0	0	0	0	0	507	511	1	900	31	0	
1	0	0	0	0	512	511	0	895	32	0	
2	0	0	0	0	509	512	0	878	32	0	
3	0	0	0	0	512	513	0	856	32	0	
4	0	0	0	0	505	514	1	848	32	0	
5	0	0	0	0	517	515	0	847	31	0	
6	0	0	0	0	519	514	0	844	31	0	
7	0	0	0	0	510	513	0	832	31	0	
8	0	0	0	0	507	514	1	812	31	0	
9	0	0	0	0	509	511	0	798	31	0	
10	0	0	0	0	511	510	0	782	32	0	
11	0	0	0	0	506	510	0	773	31	0	
12	0	0	0	0	508	508	1	765	31	0	
13	0	0	0	0	512	510	0	760	31	0	
14	0	0	0	0	513	511	0	764	31	0	
15	0	0	0	0	518	511	0	761	31	0	
0	0	0	0	0	508	512	1	753	31	0	
1	0	0	0	0	510	513	0	752	31	0	
2	0	0	0	0	511	514	0	750	32	0	
3	0	0	0	0	497	515	0	756	31	0	
4	0	0	0	0	509	511	1	759	32	0	
5	0	0	0	0	509	511	0	755	31	0	
6	0	0	0	0	513	512	0	743	31	0	
7	0	0	0	0	509	512	0	735	32	0	
8	0	0	0	0	513	513	1	722	31	0	
9	0	0	0	0	509	511	0	704	32	0	
10	0	0	0	0	513	512	0	693	32	0	
11	0	0	0	0	516	512	0	691	31	0	
12	0	0	0	0	509	510	1	689	32	0	
13	0	0	0	0	508	510	0	689	31	0	
14	0	0	0	0	515	511	0	683	31	0	
15	0	0	0	0	509	513	0	679	31	0	
0	0	0	0	0	510	513	1	676	31	0	
1	0	0	0	0	510	513	0	673	32	0	
2	0	0	0	0	504	513	0	662	32	0	
3	0	0	0	0	509	514	0	639	32	0	
4	0	0	0	0	509	513	1	615	32	0	
5	0	0	0	0	512	512	0	596	32	0	
6	0	0	0	0	512	511	0	591	31	0	
7	0	0	0	0	510	511	0	589	31	0	
8	0	0	0	0	511	515	1	576	31	0	
9	0	0	0	0	508	513	0	565	32	0	
10	0	0	0	0	513	514	0	556	32	0	
11	0	0	0	0	510	514	0	552	31	0	
12	0	0	0	0	506	515	1	557	32	0	
13	0	0	0	0	507	514	0	572	32	0	
14	0	0	0	0	508	513	0	591	31	0	
15	0	0	0	0	519	515	0	613	32	0	
0	0	0	0	0	512	516	1	631	31	0	
1	0	0	0	0	507	514	0	645	32	0	
2	0	0	0	0	508	515	0	668	32	0	
3	0	0	0	0	510	515	0	693	31	0	
4	0	0	0	0	513	514	1	696	32	0	
5	0	0	0	0	517	513	0	684	31	0	
6	0	0	0	0	503	514	0	655	31	0	
7	0	0	0	0	504	515	0	639	31	0	
8	0	0	0	0	508	513	1	637	31	0	
9	0	0	0	0	504	511	0	646	32	0	
10	0	0	0	0	512	515	0	650	32	0	
11	0	0	0	0	508	514	0	651	31	0	
12	0	0	0	0	514	512	1	656	32	0	
13	0	0	0	0	508	512	0	664	31	0	
14	0	0	0	0	508	512	0	675	31	0	
15	0	0	0	0	515	511	0	687	32	0	
0	0	0	0	0	517	513	1	700	31	0	
1	0	0	0	0	515	513	0	723	32	0	
2	0	0	0	0	518	512	0	735	32	0	
3	0	0	0	0	505	513	0	722	32	0	
4	0	0	0	0	507	513	1	689	32	0	
5	0	0	0	0	506	513	0	664	32	0	
6	0	0	0	0	511	513	0	652	31	0	
7	0	0	0	0	506	515	0	644	32	0	
8	0	0	0	0	515	514	1	633	32	0	
9	0	0	0	0	513	514	0	624	32	0	
10	0	0	0	0	513	514	0	615	32	0	
11	0	0	0	0	513	514	0	607	32	0	
12	0	0	0	0	511	513	1	596	32	0	
13	0	0	0	0	506	513	0	590	31	0	
14	0	0	0	0	511	514	0	587	31	0	
15	0	0	0	0	515	512	0	584	31	0	
0	0	0	0	0	510	510	1	602	31	0	
1	0	0	0	0	506	511	0	617	32	0	
2	0	0	0	0	502	511	0	623	32	0	
3	0	0	0	0	503	511	0	623	32	0	
4	0	0	0	0	506	512	1	622	32	0	
5	0	0	0	0	511	512	0	618	32	0	
6	0	0	0	0	503	513	0	610	31	0	
7	0	0	0	0	509	512	0	602	32	0	
8	0	0	0	0	512	515	1	591	32	0	
9	0	0	0	0	515	513	0	584	32	0	
10	0	0	0	0	516	513	0	575	32	0	
11	0	0	0	0	507	515	0	559	31	0	
12	0	0	0	0	511	513	1	535	31	0	
13	0	0	0	0	505	512	0	517	31	0	
14	0	0	0	0	511	512	0	510	31	0	
15	0	0	0	0	516	513	0	512	31	0	
0	0	0	0	0	503	513	1	519	31	0	
1	0	0	0	0	513	511	0	524	32	0	
2	0	0	0	0	515	511	0	528	32	0	
3	0	0	0	0	500	512	0	529	32	0	
4	0	0	0	0	510	511	1	534	32	0	
5	0	0	0	0	518	511	0	543	31	0	
6	0	0	0	0	516	510	0	547	31	0	
7	0	0	0	0	513	510	0	547	31	0	
8	0	0	0	0	508	511	1	537	32	0	
9	0	0	0	0	512	511	0	532	32	0	
10	0	0	0	0	516	514	0	536	32	0	
11	0	0	0	0	511	513	0	548	32	0	
12	0	0	0	0	508	513	1	556	31	0	
13	0	0	0	0	513	513	0	554	31	0	
14	0	0	0	0	510	513	0	536	31	0	
15	0	0	0	0	509	514	0	519	31	0	
0	0	0	0	0	506	512	1	512	31	0	
1	0	0	0	0	505	512	0	494	32	0	
2	0	0	0	0	504	512	0	504	32	0	
3	0	0	0	0	511	512	0	515	32	0	
4	0	0	0	0	516	511	1	512	32	0	
5	0	0	0	0	508	511	0	517	32	0	
6	0	0	0	0	518	511	0	523	31	0	
7	0	0	0	0	513	513	0	512	32	0	
8	0	0	0	0	515	514	1	501	31	0	
9	0	0	0	0	509	513	0	492	31	0	
10	0	0	0	0	507	515	0	473	32	0	
11	0	0	0	0	509	514	0	454	31	0	
12	0	0	0	0	512	514	0	446	31	0	
13	0	0	0	0	505	513	0	444	31	0	
14	0	0	0	0	518	513	0	431	31	0	
15	0	0	0	0	515	513	0	416	31	0	
0	0	0	0	0	504	512	1	409	31	0	
1	0	0	0	0	508	511	0	400	31	0	
2	0	0	0	0	503	511	0	400	32	0	
3	0	0	0	0	509	510	0	411	32	0	
4	0	0	0	0	509	509	1	425	32	0	
5	0	0	0	0	506	509	0	444	31	0	
6	0	0	0	0	512	511	0	461	31	0	
7	0	0	0	0	514	513	0	464	31	0	
8	0	0	0	0	510	513	1	463	31	0	
9	0	0	0	0	504	512	0	463	32	0	
10	0	0	0	0	512	512	0	463	32	0	
11	0	0	0	0	512	515	0	461	31	0	
12	0	0	0	0	509	516	1	455	32	0	
13	0	0	0	0	509	514	0	451	31	0	
14	0	0	0	0	509	514	0	448	31	0	
15	0	0	0	0	510	511	0	443	31	0	
0	0	0	0	0	507	511	1	432	31	0	
1	0	0	0	0	502	510	0	421	32	0	
2	0	0	0	0	513	509	0	414	32	0	
3	0	0	0	0	510	508	0	414	31	0	
4	0	0	0	0	512	510	1	419	32	0	
5	0	0	0	0	515	510	0	432	31	0	
6	0	0	0	0	518	510	0	436	31	0	
7	0	0	0	0	506	512	0	434	31	0	
8	0	0	0	0	514	512	0	430	31	0	
9	0	0	0	0	512	512	0	426	32	0	
10	0	0	0	0	512	511	0	425	32	0	
11	0	0	0	0	508	514	0	422	31	0	
12	0	0	0	0	512	515	1	408	32	0	
13	0	0	0	0	509	514	0	378	31	0	
14	0	0	0	0	508	513	0	342	31	0	
15	0	0	0	0	510	513	0	320	31	0	
0	0	0	0	0	514	513	0	327	32	0	
1	0	0	0	0	514	513	0	342	32	0	
2	0	0	0	0	510	513	0	357	32	0	
3	0	0	0	0	511	512	0	368	31	0	
4	0	0	0	0	510	511	1	370	32	0	
5	0	0	0	0	508	512	0	380	31	0	
6	0	0	0	0	502	514	0	393	31	0	
7	0	0	0	0	509	513	0	392	31	0	
8	0	0	0	0	507	514	1	382	31	0	
9	0	0	0	0	505	514	0	372	32	0	
10	0	0	0	0	511	513	0	366	32	0	
11	0	0	0	0	516	512	0	374	32	0	
12	0	0	0	0	512	512	0	386	32	0	
13	0	0	0	0	505	512	0	408	32	0	
14	0	0	0	0	502	513	0	411	31	0	
15	0	0	0	0	506	513	0	422	32	0	
0	0	0	0	0	516	513	1	427	32	0	
1	0	0	0	0	513	512	0	425	32	0	
2	0	0	0	0	513	513	0	421	32	0	
3	0	0	0	0	511	513	0	414	32	0	
4	0	0	0	0	509	511	0	400	32	0	
5	0	0	0	0	511	512	0	389	32	0	
6	0	0	0	0	514	513	0	378	31	0	
7	0	0	0	0	512	513	0	382	32	0	
8	0	0	0	0	505	512	0	391	32	0	
9	0	0	0	0	511	511	0	401	32	0	
10	0	0	0	0	505	510	0	405	32	0	
11	0	0	0	0	503	510	0	393	32	0	
12	0	0	0	0	507	511	1	360	32	0	
13	0	0	0	0	512	511	0	333	32	0	
14	0	0	0	0	515	510	0	324	31	0	
15	0	0	0	0	516	510	0	331	32	0	
0	0	0	0	0	511	509	0	344	32	0	
1	0	0	0	0	508	509	0	357	32	0	
2	0	0	0	0	516	511	0	368	32	0	
3	0	0	0	0	505	513	0	384	32	0	
4	0	0	0	0	508	511	1	399	32	0	
5	0	0	0	0	511	512	0	412	32	0	
6	0	0	0	0	512	515	0	428	31	0	
7	0	0	0	0	498	514	0	439	32	0	
8	0	0	0	0	510	515	1	433	31	0	
9	0	0	0	0	523	513	0	425	32	0	
10	0	0	0	0	513	515	0	419	32	0	
11	0	0	0	0	505	513	0	426	32	0	
12	0	0	0	0	504	513	1	433	32	0	
13	0	0	0	0	520	512	0	441	32	0	
14	0	0	0	0	515	512	0	451	31	0	
15	0	0	0	0	509	513	0	459	32	0	
0	0	0	0	0	505	514	1	463	31	0	
1	0	0	0	0	510	515	0	466	32	0	
2	0	0	0	0	511	515	0	462	32	0	
3	0	0	0	0	514	514	0	462	32	0	
4	0	0	0	0	503	513	0	448	32	0	
5	0	0	0	0	510	511	0	420	32	0	
6	0	0	0	0	510	513	0	393	31	0	
7	0	0	0	0	512	514	0	376	31	0	
8	0	0	0	0	507	512	1	370	31	0	
9	0	0	0	0	508	513	0	370	32	0	
10	0	0	0	0	508	512	0	372	32	0	
11	0	0	0	0	507	513	0	377	32	0	
12	0	0	0	0	510	513	1	382	32	0	
13	0	0	0	0	515	512	0	380	31	0	
14	0	0	0	0	506	513	0	373	31	0	
15	0	0	0	0	513	513	0	369	31	0	
0	0	0	0	0	513	514	1	370	31	0	
1	0	0	0	0	506	510	0	365	32	0	
2	0	0	0	0	515	510	0	355	32	0	
3	0	0	0	0	511	511	0	355	32	0	
4	0	0	0	0	509	513	1	358	32	0	
5	0	0	0	0	514	513	0	354	31	0	
6	0	0	0	0	512	512	0	349	31	0	
7	0	0	0	0	517	513	0	345	31	0	
8	0	0	0	0	507	513	1	335	31	0	
9	0	0	0	0	514	513	0	327	31	0	
10	0	0	0	0	508	514	0	321	32	0	
11	0	0	0	0	505	515	0	321	32	0	
12	0	0	0	0	505	513	0	328	32	0	
13	0	0	0	0	513	514	0	345	32	0	
14	0	0	0	0	510	515	0	366	31	0	
15	0	0	0	0	502	516	0	381	32	0	
0	0	0	0	0	505	515	0	394	31	0	
1	0	0	0	0	502	515	0	406	32	0	
2	0	0	0	0	512	515	0	414	32	0	
3	0	0	0	0	514	514	0	413	32	0	
4	0	0	0	0	505	513	0	415	32	0	
5	0	0	0	0	506	512	0	416	31	0	
6	0	0	0	0	511	511	0	414	31	0	
7	0	0	0	0	507	512	0	419	32	0	
8	0	0	0	0	510	512	1	431	31	0	
9	0	0	0	0	516	513	0	451	32	0	
10	0	0	0	0	510	512	0	452	32	0	
11	0	0	0	0	514	513	0	435	32	0	
12	0	0	0	0	516	513	1	415	32	0	
13	0	0	0	0	515	512	0	394	32	0	
14	0	0	0	0	510	512	0	386	31	0	
15	0	0	0	0	507	512	0	394	32	0	
0	0	0	0	0	503	514	1	376	31	0	
1	0	0	0	0	514	511	0	378	32	0	
2	0	0	0	0	516	511	0	380	32	0	
3	0	0	0	0	509	513	0	385	31	0	
4	0	0	0	0	508	512	1	387	32	0	
5	0	0	0	0	507	513	0	394	31	0	
6	0	0	0	0	508	511	0	388	31	0	
7	0	0	0	0	504	512	0	371	31	0	
8	0	0	0	0	500	513	1	358	31	0	
9	0	0	0	0	512	513	0	350	32	0	
10	0	0	0	0	514	512	0	351	32	0	
11	0	0	0	0	514	513	0	358	31	0	
12	0	0	0	0	509	514	1	364	32	0	
13	0	0	0	0	513	514	0	369	31	0	
14	0	0	0	0	514	513	0	378	31	0	
15	0	0	0	0	504	513	0	396	32	0	
0	0	0	0	0	508	512	0	417	31	0	
1	0	0	0	0	508	512	0	433	32	0	
2	0	0	0	0	509	511	0	451	32	0	
3	0	0	0	0	511	511	0	470	32	0	
4	0	0	0	0	520	510	1	487	32	0	
5	0	0	0	0	515	511	0	482	32	0	
6	0	0	0	0	506	512	0	476	31	0	
7	0	0	0	0	508	513	0	456	31	0	
8	0	0	0	0	512	514	1	423	31	0	
9	0	0	0	0	507	513	0	379	32	0	
10	0	0	0	0	510	513	0	324	32	0	
11	0	0	0	0	517	513	0	270	32	0	
12	0	0	0	0	510	513	1	209	32	0	
13	0	0	0	0	507	513	0	147	31	0	
14	0	0	0	0	507	512	0	86	31	0	
15	0	0	0	0	508	512	0	43	31	0	
0	0	0	0	0	511	511	1	18	31	0	
1	0	0	0	0	512	510	0	0	31	0	
2	0	0	0	0	515	513	0	0	32	0	
3	0	0	0	0	514	513	0	0	31	0	
4	0	0	0	0	518	512	0	0	32	0	
5	0	0	0	0	505	511	0	0	31	0	
6	0	0	0	0	508	512	0	0	31	0	
7	0	0	0	0	511	513	0	0	31	0	
8	0	0	0	0	506	510	0	0	31	0	
9	0	0	0	0	510	511	0	0	32	0	
10	0	0	0	0	517	514	0	0	32	0	
11	0	0	0	0	510	515	0	0	31	0	
12	0	0	0	0	506	512	0	0	32	0	
13	0	0	0	0	505	510	0	0	32	0	
14	0	0	0	0	514	512	0	0	31	0	
15	0	0	0	0	512	513	0	0	32	0	
0	0	0	0	0	514	512	1	0	31	0	
1	0	0	0	0	518	509	0	0	32	0	
2	0	0	0	0	508	509	0	0	32	0	
3	0	0	0	0	508	508	0	0	32	0	
4	0	0	0	0	505	508	1	0	32	0	
5	0	0	0	0	506	507	0	0	31	0	
6	0	0	0	0	510	511	0	0	31	0	
7	0	0	0	0	508	512	0	0	31	0	
8	0	0	0	0	511	510	0	0	31	0	
9	0	0	0	0	508	511	0	0	32	0	
10	0	0	0	0	510	512	0	0	32	0	
11	0	0	0	0	510	515	0	0	32	0	
12	0	0	0	0	504	510	0	0	31	0	
13	0	0	0	0	506	512	0	0	31	0	
14	0	0	0	0	514	514	0	0	31	0	
15	0	0	0	0	509	512	0	0	31	0	
0	0	0	0	0	512	511	0	0	31	0	
1	0	0	0	0	511	514	0	0	32	0	
2	0	0	0	0	515	512	0	0	32	0	
3	0	0	0	0	512	513	0	0	31	0	
4	0	0	0	0	504	511	0	0	31	0	
5	0	0	0	0	516	512	0	0	31	0	
6	0	0	0	0	514	510	0	0	31	0	
7	0	0	0	0	509	510	0	0	31	0	
8	0	0	0	0	514	510	0	0	31	0	
9	0	0	0	0	509	510	0	0	31	0	
10	0	0	0	0	510	511	0	0	32	0	
11	0	0	0	0	506	510	0	0	31	0	
12	0	0	0	0	508	512	1	0	32	0	
13	0	0	0	0	511	511	0	0	32	0	
14	0	0	0	0	510	512	0	0	31	0	
15	0	0	0	0	503	512	0	0	32	0	
0	0	0	0	0	506	511	0	0	32	0	
1	0	0	0	0	513	509	0	0	32	0	
2	0	0	0	0	510	510	0	0	32	0	
3	0	0	0	0	508	511	0	0	32	0	
4	0	0	0	0	511	512	1	0	32	0	
5	0	0	0	0	510	511	0	0	31	0	
6	0	0	0	0	518	513	0	0	31	0	
7	0	0	0	0	513	516	0	0	31	0	
8	0	0	0	0	504	513	0	0	31	0	
9	0	0	0	0	502	511	0	0	32	0	
10	0	0	0	0	508	514	0	0	32	0	
11	0	0	0	0	515	515	0	0	32	0	
12	0	0	0	0	508	514	0	0	32	0	
13	0	0	0	0	511	513	0	0	32	0	
14	0	0	0	0	511	514	0	0	31	0	
15	0	0	0	0	504	515	0	0	31	0	
0	0	0	0	0	507	514	0	50	32	0	
1	0	0	0	0	513	512	0	57	32	0	
2	0	0	0	0	516	513	0	53	32	0	
3	0	0	0	0	516	513	0	51	32	0	
4	0	0	0	0	512	515	0	43	32	0	
5	0	0	0	0	505	513	0	42	32	0	
6	0	0	0	0	504	514	0	46	31	0	
7	0	0	0	0	507	513	0	50	31	0	
8	0	0	0	0	517	513	0	53	31	0	
9	0	0	0	0	507	513	0	61	31	0	
10	0	0	0	0	507	511	0	80	32	0	
11	0	0	0	0	510	511	0	101	31	0	
12	0	0	0	0	512	510	0	110	32	0	
13	0	0	0	0	509	511	0	108	31	0	
14	0	0	0	0	500	511	0	109	31	0	
15	0	0	0	0	508	513	0	118	31	0	
0	0	0	0	0	512	512	1	139	32	0	
1	0	0	0	0	511	513	0	164	32	0	
2	0	0	0	0	511	511	0	182	32	0	
3	0	0	0	0	507	513	0	191	31	0	
4	0	0	0	0	515	514	1	194	32	0	
5	0	0	0	0	511	514	0	199	32	0	
6	0	0	0	0	505	514	0	204	31	0	
7	0	0	0	0	507	515	0	208	31	0	
8	0	0	0	0	510	513	0	206	32	0	
9	0	0	0	0	511	513	0	195	32	0	
10	0	0	0	0	514	515	0	172	32	0	
11	0	0	0	0	505	514	0	158	31	0	
12	0	0	0	0	512	513	0	159	32	0	
13	0	0	0	0	509	512	0	167	31	0	
14	0	0	0	0	513	511	0	175	31	0	
15	0	0	0	0	509	510	0	184	31	0	
0	0	0	0	0	512	510	1	201	31	0	
1	0	0	0	0	510	509	0	227	32	0	
2	0	0	0	0	511	510	0	251	32	0	
3	0	0	0	0	502	511	0	266	32	0	
4	0	0	0	0	508	511	0	272	31	0	
5	0	0	0	0	508	512	0	283	31	0	
6	0	0	0	0	508	513	0	287	31	0	
7	0	0	0	0	516	514	0	279	31	0	
8	0	0	0	0	509	513	1	273	31	0	
9	0	0	0	0	504	512	0	265	31	0	
10	0	0	0	0	515	512	0	252	32	0	
11	0	0	0	0	512	512	0	240	31	0	
12	0	0	0	0	511	512	0	235	32	0	
13	0	0	0	0	505	511	0	238	32	0	
14	0	0	0	0	508	512	0	247	31	0	
15	0	0	0	0	516	512	0	263	31	0	
0	0	0	0	0	512	511	1	274	31	0	
1	0	0	0	0	513	508	0	281	31	0	
2	0	0	0	0	510	507	0	289	32	0	
3	0	0	0	0	507	510	0	299	31	0	
4	0	0	0	0	507	509	0	301	32	0	
5	0	0	0	0	516	509	0	309	31	0	
6	0	0	0	0	511	509	0	322	31	0	
7	0	0	0	0	508	508	0	327	32	0	
8	0	0	0	0	511	509	0	308	31	0	
9	0	0	0	0	510	510	0	300	31	0	
10	0	0	0	0	507	511	0	309	32	0	
11	0	0	0	0	509	512	0	316	31	0	
12	0	0	0	0	505	511	0	322	32	0	
13	0	0	0	0	511	510	0	329	31	0	
14	0	0	0	0	505	510	0	345	31	0	
15	0	0	0	0	505	512	0	363	31	0	
0	0	0	0	0	509	511	1	367	31	0	
1	0	0	0	0	509	512	0	362	32	0	
2	0	0	0	0	511	512	0	369	32	0	
3	0	0	0	0	512	513	0	385	31	0	
4	0	0	0	0	509	512	0	410	31	0	
5	0	0	0	0	508	511	0	409	31	0	
6	0	0	0	0	512	509	0	409	31	0	
7	0	0	0	0	506	509	0	395	31	0	
8	0	0	0	0	508	510	0	376	31	0	
9	0	0	0	0	509	509	0	369	31	0	
10	0	0	0	0	511	510	0	359	32	0	
11	0	0	0	0	505	512	0	351	31	0	
12	0	0	0	0	516	514	1	352	32	0	
13	0	0	0	0	509	512	0	355	31	0	
14	0	0	0	0	507	513	0	353	31	0	
15	0	0	0	0	510	513	0	355	31	0	
0	0	0	0	0	511	514	1	365	31	0	
1	0	0	0	0	511	512	0	386	31	0	
2	0	0	0	0	514	513	0	396	32	0	
3	0	0	0	0	506	514	0	398	31	0	
4	0	0	0	0	507	515	1	397	32	0	
5	0	0	0	0	514	514	0	413	31	0	
6	0	0	0	0	509	513	0	401	31	0	
7	0	0	0	0	520	513	0	407	31	0	
8	0	0	0	0	505	514	1	406	31	0	
9	0	0	0	0	511	515	0	403	31	0	
10	0	0	0	0	509	514	0	385	32	0	
11	0	0	0	0	511	513	0	365	31	0	
12	0	0	0	0	513	513	0	365	31	0	
13	0	0	0	0	510	513	0	385	31	0	
14	0	0	0	0	511	515	0	398	31	0	
15	0	0	0	0	515	515	0	394	32	0	
0	0	0	0	0	515	515	1	381	31	0	
1	0	0	0	0	507	513	0	376	31	0	
2	0	0	0	0	507	514	0	384	32	0	
3	0	0	0	0	505	514	0	402	31	0	
4	0	0	0	0	508	512	0	426	32	0	
5	0	0	0	0	508	513	0	440	31	0	
6	0	0	0	0	502	513	0	442	31	0	
7	0	0	0	0	516	513	0	434	31	0	
8	0	0	0	0	519	514	1	418	31	0	
9	0	0	0	0	508	513	0	395	32	0	
10	0	0	0	0	508	513	0	376	32	0	
11	0	0	0	0	514	514	0	364	31	0	
12	0	0	0	0	518	515	1	352	32	0	
13	0	0	0	0	506	515	0	353	31	0	
14	0	0	0	0	511	515	0	362	31	0	
15	0	0	0	0	509	515	0	371	32	0	
0	0	0	0	0	513	516	1	378	31	0	
1	0	0	0	0	511	513	0	390	31	0	
2	0	0	0	0	505	512	0	396	32	0	
3	0	0	0	0	508	512	0	411	31	0	
4	0	0	0	0	509	513	1	425	32	0	
5	0	0	0	0	502	512	0	444	31	0	
6	0	0	0	0	516	513	0	460	31	0	
7	0	0	0	0	515	515	0	470	31	0	
8	0	0	0	0	510	511	0	476	31	0	
9	0	0	0	0	510	510	0	475	32	0	
10	0	0	0	0	511	512	0	473	32	0	
11	0	0	0	0	514	514	0	477	32	0	
12	0	0	0	0	508	514	1	474	32	0	
13	0	0	0	0	510	514	0	471	32	0	
14	0	0	0	0	517	514	0	467	31	0	
15	0	0	0	0	507	513	0	448	31	0	
0	0	0	0	0	505	512	0	413	31	0	
1	0	0	0	0	507	512	0	374	32	0	
2	0	0	0	0	508	513	0	343	32	0	
3	0	0	0	0	513	512	0	325	31	0	
4	0	0	0	0	511	512	0	301	32	0	
5	0	0	0	0	513	513	0	284	31	0	
6	0	0	0	0	515	513	0	268	31	0	
7	0	0	0	0	512	514	0	254	32	0	
8	0	0	0	0	507	513	0	228	31	0	
9	0	0	0	0	510	513	0	204	32	0	
10	0	0	0	0	509	512	0	169	32	0	
11	0	0	0	0	512	512	0	134	31	0	
12	0	0	0	0	504	509	0	115	32	0	
13	0	0	0	0	503	510	0	103	32	0	
14	0	0	0	0	512	511	0	94	31	0	
15	0	0	0	0	514	513	0	85	32	0	
0	0	0	0	0	511	515	0	75	32	0	
1	0	0	0	0	508	515	0	69	32	0	
2	0	0	0	0	512	514	0	72	32	0	
3	0	0	0	0	508	513	0	79	32	0	
4	0	0	0	0	510	512	1	89	32	0	
5	0	0	0	0	512	512	0	84	31	0	
6	0	0	0	0	503	512	0	78	31	0	
7	0	0	0	0	510	512	0	63	31	0	
8	0	0	0	0	508	510	0	38	32	0	
9	0	0	0	0	511	509	0	22	32	0	
10	0	0	0	0	513	509	0	7	32	0	
11	0	0	0	0	513	510	0	0	32	0	
12	0	0	0	0	511	511	1	0	32	0	
13	0	0	0	0	510	511	0	0	31	0	
14	0	0	0	0	515	510	0	14	31	0	
15	0	0	0	0	505	511	0	33	31	0	
0	0	0	0	0	508	511	1	50	31	0	
1	0	0	0	0	512	511	0	60	32	0	
2	0	0	0	0	503	510	0	70	32	0	
3	0	0	0	0	506	510	0	75	32	0	
4	0	0	0	0	513	511	1	74	32	0	
5	0	0	0	0	508	512	0	67	32	0	
6	0	0	0	0	511	514	0	56	31	0	
7	0	0	0	0	505	515	0	63	32	0	
8	0	0	0	0	514	512	1	79	31	0	
9	0	0	0	0	513	511	0	100	32	0	
10	0	0	0	0	511	512	0	111	32	0	
11	0	0	0	0	513	513	0	114	32	0	
12	0	0	0	0	509	514	1	120	32	0	
13	0	0	0	0	506	511	0	120	32	0	
14	0	0	0	0	506	511	0	135	31	0	
15	0	0	0	0	511	508	0	155	31	0	
0	0	0	0	0	512	510	1	177	31	0	
1	0	0	0	0	510	508	0	201	31	0	
2	0	0	0	0	511	508	0	226	32	0	
3	0	0	0	0	506	508	0	252	31	0	
4	0	0	0	0	511	508	0	275	32	0	
5	0	0	0	0	508	508	0	293	32	0	
6	0	0	0	0	507	509	0	295	31	0	
7	0	0	0	0	510	510	0	293	31	0	
8	0	0	0	0	509	510	1	288	32	0	
9	0	0	0	0	510	510	0	280	32	0	
10	0	0	0	0	511	511	0	266	32	0	
11	0	0	0	0	509	513	0	259	31	0	
12	0	0	0	0	516	512	0	255	31	0	
13	0	0	0	0	513	511	0	246	31	0	
14	0	0	0	0	506	511	0	238	31	0	
15	0	0	0	0	507	513	0	246	31	0	
0	0	0	0	0	511	511	0	232	31	0	
1	0	0	0	0	507	510	0	235	32	0	
2	0	0	0	0	505	511	0	249	32	0	
3	0	0	0	0	510	512	0	268	32	0	
4	0	0	0	0	509	513	1	293	32	0	
5	0	0	0	0	510	513	0	311	31	0	
6	0	0	0	0	512	515	0	332	31	0	
7	0	0	0	0	507	515	0	351	31	0	
8	0	0	0	0	517	514	0	360	31	0	
9	0	0	0	0	508	512	0	371	32	0	
10	0	0	0	0	507	510	0	355	32	0	
11	0	0	0	0	510	511	0	352	31	0	
12	0	0	0	0	508	513	1	337	32	0	
13	0	0	0	0	511	513	0	339	31	0	
14	0	0	0	0	512	512	0	353	31	0	
15	0	0	0	0	509	512	0	367	31	0	
0	0	0	0	0	514	513	1	372	31	0	
1	0	0	0	0	510	511	0	376	31	0	
2	0	0	0	0	511	511	0	378	32	0	
3	0	0	0	0	510	513	0	369	31	0	
4	0	0	0	0	516	513	0	372	31	0	
5	0	0	0	0	509	511	0	386	31	0	
6	0	0	0	0	510	510	0	405	31	0	
7	0	0	0	0	511	511	0	433	31	0	
8	0	0	0	0	508	512	1	460	31	0	
9	0	0	0	0	507	510	0	468	32	0	
10	0	0	0	0	515	510	0	474	32	0	
11	0	0	0	0	501	511	0	471	32	0	
12	0	0	0	0	508	511	0	460	32	0	
13	0	0	0	0	507	509	0	448	32	0	
14	0	0	0	0	514	510	0	444	31	0	
15	0	0	0	0	506	512	0	449	31	0	
0	0	0	0	0	513	511	1	453	31	0	
1	0	0	0	0	510	512	0	454	32	0	
2	0	0	0	0	512	513	0	459	32	0	
3	0	0	0	0	511	514	0	468	32	0	
4	0	0	0	0	516	512	0	487	32	0	
5	0	0	0	0	513	510	0	507	32	0	
6	0	0	0	0	510	510	0	526	31	0	
7	0	0	0	0	507	509	0	540	32	0	
8	0	0	0	0	505	509	0	548	32	0	
9	0	0	0	0	509	508	0	543	32	0	
10	0	0	0	0	512	511	0	543	32	0	
11	0	0	0	0	518	512	0	547	32	0	
12	0	0	0	0	505	512	1	545	32	0	
13	0	0	0	0	509	512	0	531	32	0	
14	0	0	0	0	511	511	0	513	31	0	
15	0	0	0	0	511	511	0	501	32	0	
0	0	0	0	0	507	510	1	494	31	0	
1	0	0	0	0	508	508	0	497	32	0	
2	0	0	0	0	511	508	0	505	32	0	
3	0	0	0	0	507	509	0	511	32	0	
4	0	0	0	0	506	507	1	510	32	0	
5	0	0	0	0	514	508	0	502	32	0	
6	0	0	0	0	515	509	0	491	31	0	
7	0	0	0	0	508	511	0	493	31	0	
8	0	0	0	0	506	510	0	503	32	0	
9	0	0	0	0	503	511	0	518	32	0	
10	0	0	0	0	515	512	0	533	32	0	
11	0	0	0	0	511	513	0	538	32	0	
12	0	0	0	0	506	513	1	536	32	0	
13	0	0	0	0	507	511	0	532	32	0	
14	0	0	0	0	514	511	0	527	31	0	
15	0	0	0	0	510	511	0	531	32	0	
0	0	0	0	0	510	513	1	532	32	0	
1	0	0	0	0	508	514	0	540	32	0	
2	0	0	0	0	510	513	0	539	32	0	
3	0	0	0	0	509	513	0	532	32	0	
4	0	0	0	0	516	512	0	523	32	0	
5	0	0	0	0	516	511	0	508	32	0	
6	0	0	0	0	513	510	0	504	31	0	
7	0	0	0	0	509	512	0	506	32	0	
8	0	0	0	0	511	512	1	507	31	0	
9	0	0	0	0	508	511	0	508	32	0	
10	0	0	0	0	512	511	0	515	32	0	
11	0	0	0	0	508	512	0	513	32	0	
12	0	0	0	0	512	512	1	502	32	0	
13	0	0	0	0	503	513	0	494	32	0	
14	0	0	0	0	502	513	0	489	31	0	
15	0	0	0	0	513	513	0	488	32	0	
0	0	0	0	0	510	513	1	485	31	0	
1	0	0	0	0	511	511	0	480	32	0	
2	0	0	0	0	506	511	0	479	32	0	
3	0	0	0	0	513	513	0	491	32	0	
4	0	0	0	0	515	513	1	509	32	0	
5	0	0	0	0	514	513	0	519	31	0	
6	0	0	0	0	510	514	0	527	31	0	
7	0	0	0	0	511	515	0	537	31	0	
8	0	0	0	0	508	515	0	559	31	0	
9	0	0	0	0	512	513	0	585	32	0	
10	0	0	0	0	508	513	0	612	32	0	
11	0	0	0	0	513	512	0	624	32	0	
12	0	0	0	0	507	513	1	624	32	0	
13	0	0	0	0	517	514	0	624	32	0	
14	0	0	0	0	509	513	0	626	31	0	
15	0	0	0	0	513	514	0	629	32	0	
0	0	0	0	0	506	513	0	622	32	0	
1	0	0	0	0	505	513	0	614	32	0	
2	0	0	0	0	508	514	0	608	32	0	
3	0	0	0	0	514	514	0	600	32	0	
4	0	0	0	0	515	512	0	594	32	0	
5	0	0	0	0	506	514	0	598	31	0	
6	0	0	0	0	511	514	0	585	31	0	
7	0	0	0	0	502	513	0	594	31	0	
8	0	0	0	0	506	515	1	604	31	0	
9	0	0	0	0	518	514	0	617	31	0	
10	0	0	0	0	516	515	0	626	32	0	
11	0	0	0	0	509	514	0	628	31	0	
12	0	0	0	0	506	513	0	624	32	0	
13	0	0	0	0	509	513	0	620	32	0	
14	0	0	0	0	508	514	0	622	31	0	
15	0	0	0	0	516	515	0	615	32	0	
0	0	0	0	0	514	512	1	602	31	0	
1	0	0	0	0	507	510	0	590	32	0	
2	0	0	0	0	501	510	0	577	32	0	
3	0	0	0	0	508	511	0	577	32	0	
4	0	0	0	0	514	512	1	583	32	0	
5	0	0	0	0	512	512	0	590	32	0	
6	0	0	0	0	504	511	0	591	31	0	
7	0	0	0	0	511	511	0	569	31	0	
8	0	0	0	0	511	510	1	548	31	0	
9	0	0	0	0	509	508	0	530	32	0	
10	0	0	0	0	514	510	0	525	32	0	
11	0	0	0	0	512	512	0	534	32	0	
12	0	0	0	0	507	510	1	553	32	0	
13	0	0	0	0	510	511	0	570	32	0	
14	0	0	0	0	503	512	0	591	31	0	
15	0	0	0	0	515	511	0	615	32	0	
0	0	0	0	0	510	509	0	617	32	0	
1	0	0	0	0	506	509	0	611	32	0	
2	0	0	0	0	514	512	0	598	32	0	
3	0	0	0	0	510	512	0	588	32	0	
4	0	0	0	0	510	510	1	587	32	0	
5	0	0	0	0	513	511	0	595	32	0	
6	0	0	0	0	506	511	0	614	31	0	
7	0	0	0	0	508	511	0	638	32	0	
8	0	0	0	0	505	511	1	652	32	0	
9	0	0	0	0	507	511	0	652	32	0	
10	0	0	0	0	510	512	0	643	32	0	
11	0	0	0	0	510	511	0	643	32	0	
12	0	0	0	0	509	511	1	633	32	0	
13	0	0	0	0	511	511	0	640	32	0	
14	0	0	0	0	507	511	0	645	31	0	
15	0	0	0	0	514	514	0	651	32	0	
0	0	0	0	0	513	513	1	659	31	0	
1	0	0	0	0	504	510	0	670	32	0	
2	0	0	0	0	515	513	0	675	32	0	
3	0	0	0	0	500	512	0	679	32	0	
4	0	0	0	0	512	512	1	684	32	0	
5	0	0	0	0	504	511	0	677	32	0	
6	0	0	0	0	513	511	0	653	31	0	
7	0	0	0	0	516	510	0	625	31	0	
8	0	0	0	0	514	510	0	623	32	0	
9	0	0	0	0	512	510	0	646	32	0	
10	0	0	0	0	507	512	0	668	32	0	
11	0	0	0	0	508	513	0	673	32	0	
12	0	0	0	0	511	512	0	660	32	0	
13	0	0	0	0	515	514	0	631	32	0	
14	0	0	0	0	515	513	0	605	31	0	
15	0	0	0	0	509	513	0	594	31	0	
0	0	0	0	0	509	512	1	588	31	0	
1	0	0	0	0	514	511	0	579	32	0	
2	0	0	0	0	505	513	0	583	32	0	
3	0	0	0	0	510	516	0	589	32	0	
4	0	0	0	0	515	515	1	587	32	0	
5	0	0	0	0	505	513	0	594	32	0	
6	0	0	0	0	511	513	0	583	31	0	
7	0	0	0	0	507	512	0	575	32	0	
8	0	0	0	0	508	513	0	567	31	0	
9	0	0	0	0	511	513	0	563	32	0	
10	0	0	0	0	511	514	0	560	32	0	
11	0	0	0	0	512	515	0	563	31	0	
12	0	0	0	0	511	514	1	577	32	0	
13	0	0	0	0	504	513	0	590	31	0	
14	0	0	0	0	511	513	0	598	31	0	
15	0	0	0	0	513	512	0	597	31	0	
0	0	0	0	0	513	513	1	583	31	0	
1	0	0	0	0	507	512	0	568	32	0	
2	0	0	0	0	518	512	0	558	32	0	
3	0	0	0	0	516	512	0	555	31	0	
4	0	0	0	0	504	512	1	554	32	0	
5	0	0	0	0	508	512	0	562	31	0	
6	0	0	0	0	511	515	0	570	31	0	
7	0	0	0	0	510	514	0	572	32	0	
8	0	0	0	0	512	510	0	563	32	0	
9	0	0	0	0	505	510	0	553	32	0	
10	0	0	0	0	511	511	0	546	32	0	
11	0	0	0	0	517	511	0	543	32	0	
12	0	0	0	0	503	512	1	541	32	0	
13	0	0	0	0	512	511	0	549	31	0	
14	0	0	0	0	515	512	0	552	31	0	
15	0	0	0	0	514	513	0	552	31	0	
0	0	0	0	0	508	512	1	557	31	0	
1	0	0	0	0	512	513	0	569	32	0	
2	0	0	0	0	508	512	0	580	32	0	
3	0	0	0	0	506	512	0	594	31	0	
4	0	0	0	0	513	511	0	600	32	0	
5	0	0	0	0	508	511	0	593	31	0	
6	0	0	0	0	512	512	0	588	31	0	
7	0	0	0	0	512	512	0	587	31	0	
8	0	0	0	0	515	512	1	597	31	0	
9	0	0	0	0	513	511	0	615	32	0	
10	0	0	0	0	508	510	0	623	32	0	
11	0	0	0	0	516	510	0	626	32	0	
12	0	0	0	0	510	510	1	624	32	0	
13	0	0	0	0	510	511	0	625	32	0	
14	0	0	0	0	508	511	0	627	31	0	
15	0	0	0	0	510	511	0	635	31	0	
0	0	0	0	0	506	512	0	647	31	0	
1	0	0	0	0	504	513	0	655	31	0	
2	0	0	0	0	512	512	0	661	32	0	
3	0	0	0	0	514	512	0	674	32	0	
4	0	0	0	0	518	512	1	678	32	0	
5	0	0	0	0	508	513	0	676	32	0	
6	0	0	0	0	505	512	0	679	31	0	
7	0	0	0	0	509	512	0	675	32	0	
8	0	0	0	0	513	513	1	654	32	0	
9	0	0	0	0	508	514	0	633	32	0	
10	0	0	0	0	513	514	0	611	32	0	
11	0	0	0	0	512	514	0	594	31	0	
12	0	0	0	0	509	513	1	593	32	0	
13	0	0	0	0	510	511	0	601	31	0	
14	0	0	0	0	513	512	0	610	31	0	
15	0	0	0	0	511	512	0	613	32	0	
0	0	0	0	0	509	511	1	607	32	0	
1	0	0	0	0	508	511	0	601	32	0	
2	0	0	0	0	509	511	0	598	32	0	
3	0	0	0	0	510	511	0	598	32	0	
4	0	0	0	0	510	510	0	597	32	0	
5	0	0	0	0	510	510	0	595	31	0	
6	0	0	0	0	511	513	0	597	31	0	
7	0	0	0	0	508	513	0	601	32	0	
8	0	0	0	0	509	514	1	607	31	0	
9	0	0	0	0	512	513	0	625	32	0	
10	0	0	0	0	506	511	0	655	32	0	
11	0	0	0	0	509	512	0	681	32	0	
12	0	0	0	0	512	512	1	694	32	0	
13	0	0	0	0	505	511	0	708	32	0	
14	0	0	0	0	508	510	0	718	31	0	
15	0	0	0	0	513	513	0	718	32	0	
0	0	0	0	0	513	512	1	706	32	0	
1	0	0	0	0	507	510	0	684	32	0	
2	0	0	0	0	511	509	0	659	32	0	
3	0	0	0	0	512	509	0	643	32	0	
4	0	0	0	0	513	510	1	639	32	0	
5	0	0	0	0	508	510	0	645	32	0	
6	0	0	0	0	511	511	0	649	31	0	
7	0	0	0	0	511	512	0	654	32	0	
8	0	0	0	0	515	512	1	661	31	0	
9	0	0	0	0	506	511	0	664	32	0	
10	0	0	0	0	515	511	0	658	32	0	
11	0	0	0	0	511	510	0	648	32	0	
12	0	0	0	0	515	510	1	643	32	0	
13	0	0	0	0	512	510	0	651	32	0	
14	0	0	0	0	507	511	0	670	31	0	
15	0	0	0	0	504	512	0	693	32	0	
0	0	0	0	0	510	513	1	702	31	0	
1	0	0	0	0	507	512	0	700	32	0	
2	0	0	0	0	503	512	0	686	32	0	
3	0	0	0	0	512	510	0	665	32	0	
4	0	0	0	0	519	511	1	651	32	0	
5	0	0	0	0	513	510	0	641	32	0	
6	0	0	0	0	508	510	0	627	31	0	
7	0	0	0	0	514	511	0	628	31	0	
8	0	0	0	0	506	509	1	643	31	0	
9	0	0	0	0	509	509	0	656	32	0	
10	0	0	0	0	511	510	0	666	32	0	
11	0	0	0	0	505	510	0	672	32	0	
12	0	0	0	0	511	508	0	670	32	0	
13	0	0	0	0	510	508	0	664	32	0	
14	0	0	0	0	518	511	0	655	31	0	
15	0	0	0	0	511	512	0	642	32	0	
0	0	0	0	0	506	512	1	629	32	0	
1	0	0	0	0	506	512	0	618	32	0	
2	0	0	0	0	511	513	0	608	32	0	
3	0	0	0	0	514	514	0	595	32	0	
4	0	0	0	0	509	513	1	578	32	0	
5	0	0	0	0	511	513	0	566	32	0	
6	0	0	0	0	503	512	0	554	31	0	
7	0	0	0	0	508	513	0	553	31	0	
8	0	0	0	0	513	515	1	560	31	0	
9	0	0	0	0	513	513	0	559	31	0	
10	0	0	0	0	512	513	0	553	32	0	
11	0	0	0	0	509	514	0	563	31	0	
12	0	0	0	0	507	515	1	586	32	0	
13	0	0	0	0	510	516	0	614	31	0	
14	0	0	0	0	511	516	0	627	31	0	
15	0	0	0	0	518	516	0	632	32	0	
0	0	0	0	0	513	518	1	637	31	0	
1	0	0	0	0	511	513	0	650	32	0	
2	0	0	0	0	502	514	0	665	32	0	
3	0	0	0	0	511	515	0	686	32	0	
4	0	0	0	0	516	513	1	694	32	0	
5	0	0	0	0	512	512	0	697	31	0	
6	0	0	0	0	508	511	0	695	31	0	
7	0	0	0	0	510	514	0	689	31	0	
8	0	0	0	0	507	513	1	687	31	0	
9	0	0	0	0	502	515	0	683	31	0	
10	0	0	0	0	507	519	0	676	32	0	
11	0	0	0	0	507	519	0	671	31	0	
12	0	0	0	0	511	519	1	675	32	0	
13	0	0	0	0	509	517	0	682	31	0	
14	0	0	0	0	513	518	0	689	31	0	
15	0	0	0	0	513	518	0	691	31	0	
0	0	0	0	0	513	519	1	687	31	0	
1	0	0	0	0	512	517	0	678	31	0	
2	0	0	0	0	512	515	0	670	32	0	
3	0	0	0	0	505	514	0	664	32	0	
4	0	0	0	0	505	513	0	667	31	0	
5	0	0	0	0	511	514	0	676	31	0	
6	0	0	0	0	513	514	0	674	31	0	
7	0	0	0	0	504	515	0	634	31	0	
8	0	0	0	0	507	515	0	608	31	0	
9	0	0	0	0	509	514	0	602	31	0	
10	0	0	0	0	506	514	0	607	32	0	
11	0	0	0	0	507	512	0	622	32	0	
12	0	0	0	0	516	510	0	641	32	0	
13	0	0	0	0	511	512	0	667	32	0	
14	0	0	0	0	510	511	0	693	31	0	
15	0	0	0	0	513	511	0	716	31	0	
0	0	0	0	0	514	511	1	734	31	0	
1	0	0	0	0	505	509	0	753	31	0	
2	0	0	0	0	506	510	0	761	32	0	
3	0	0	0	0	515	510	0	770	31	0	
4	0	0	0	0	506	510	1	776	32	0	
5	0	0	0	0	508	510	0	781	31	0	
6	0	0	0	0	511	512	0	781	31	0	
7	0	0	0	0	515	512	0	776	31	0	
8	0	0	0	0	520	512	1	762	31	0	
9	0	0	0	0	511	511	0	743	32	0	
10	0	0	0	0	510	511	0	728	32	0	
11	0	0	0	0	504	511	0	719	31	0	
12	0	0	0	0	509	511	1	708	31	0	
13	0	0	0	0	507	512	0	689	31	0	
14	0	0	0	0	512	513	0	677	31	0	
15	0	0	0	0	512	514	0	682	31	0	
0	0	0	0	0	520	515	1	684	31	0	
1	0	0	0	0	510	514	0	689	32	0	
2	0	0	0	0	512	515	0	697	32	0	
3	0	0	0	0	507	517	0	693	32	0	
4	0	0	0	0	510	516	1	679	31	0	
5	0	0	0	0	513	513	0	656	31	0	
6	0	0	0	0	506	512	0	642	31	0	
7	0	0	0	0	506	511	0	643	31	0	
8	0	0	0	0	509	512	1	644	31	0	
9	0	0	0	0	519	509	0	649	32	0	
10	0	0	0	0	499	509	0	649	32	0	
11	0	0	0	0	516	509	0	647	32	0	
12	0	0	0	0	512	510	0	648	32	0	
13	0	0	0	0	512	512	0	648	32	0	
14	0	0	0	0	511	510	0	648	31	0	
15	0	0	0	0	508	510	0	649	32	0	
0	0	0	0	0	507	508	1	645	31	0	
1	0	0	0	0	509	508	0	643	32	0	
2	0	0	0	0	513	510	0	643	32	0	
3	0	0	0	0	508	510	0	644	31	0	
4	0	0	0	0	511	511	1	651	31	0	
5	0	0	0	0	509	511	0	659	31	0	
6	0	0	0	0	510	511	0	668	31	0	
7	0	0	0	0	511	513	0	659	31	0	
8	0	0	0	0	510	511	0	633	31	0	
9	0	0	0	0	508	512	0	602	32	0	
10	0	0	0	0	510	512	0	566	32	0	
11	0	0	0	0	513	514	0	535	32	0	
12	0	0	0	0	512	513	1	508	32	0	
13	0	0	0	0	505	511	0	496	32	0	
14	0	0	0	0	511	511	0	503	31	0	
15	0	0	0	0	507	513	0	528	31	0	
0	0	0	0	0	517	513	0	558	32	0	
1	0	0	0	0	506	512	0	588	32	0	
2	0	0	0	0	512	514	0	630	32	0	
3	0	0	0	0	512	515	0	676	31	0	
4	0	0	0	0	514	511	1	716	31	0	
5	0	0	0	0	513	512	0	748	31	0	
6	0	0	0	0	513	512	0	780	31	0	
7	0	0	0	0	504	513	0	812	31	0	
8	0	0	0	0	511	511	1	849	31	0	
9	0	0	0	0	510	512	0	882	31	0	
10	0	0	0	0	509	513	0	897	32	0	
11	0	0	0	0	507	514	0	883	31	0	
12	0	0	0	0	513	515	1	857	32	0	
13	0	0	0	0	503	514	0	847	31	0	
14	0	0	0	0	513	515	0	843	31	0	
15	0	0	0	0	515	516	0	845	31	0	
0	0	0	0	0	508	516	1	850	31	0	
1	0	0	0	0	512	514	0	868	31	0	
2	0	0	0	0	515	515	0	898	32	0	
3	0	0	0	0	507	516	0	918	31	0	
4	0	0	0	0	514	515	0	931	31	0	
5	0	0	0	0	513	515	0	946	31	0	
6	0	0	0	0	507	515	0	957	31	0	
7	0	0	0	0	513	516	0	958	31	0	
8	0	0	0	0	513	517	1	952	31	0	
9	0	0	0	0	505	515	0	944	31	0	
10	0	0	0	0	515	515	0	941	32	0	
11	0	0	0	0	514	516	0	946	31	0	
12	0	0	0	0	515	515	1	946	32	0	
13	0	0	0	0	511	514	0	942	31	0	
14	0	0	0	0	504	512	0	939	31	0	
15	0	0	0	0	511	512	0	935	31	0	
0	0	0	0	0	504	513	1	937	31	0	
1	0	0	0	0	509	511	0	942	31	0	
2	0	0	0	0	511	512	0	937	32	0	
3	0	0	0	0	512	514	0	933	31	0	
4	0	0	0	0	520	513	1	928	32	0	
5	0	0	0	0	516	514	0	936	31	0	
6	0	0	0	0	509	514	0	941	31	0	
7	0	0	0	0	508	512	0	941	31	0	
8	0	0	0	0	514	511	0	944	31	0	
9	0	0	0	0	507	512	0	947	32	0	
10	0	0	0	0	509	512	0	949	32	0	
11	0	0	0	0	506	512	0	948	31	0	
12	0	0	0	0	507	512	1	944	32	0	
13	0	0	0	0	510	514	0	933	32	0	
14	0	0	0	0	509	515	0	918	31	0	
15	0	0	0	0	499	517	0	902	31	0	
0	0	0	0	0	517	517	1	879	31	0	
1	0	0	0	0	512	513	0	858	32	0	
2	0	0	0	0	508	513	0	844	32	0	
3	0	0	0	0	507	512	0	832	32	0	
4	0	0	0	0	510	511	1	819	32	0	
5	0	0	0	0	513	510	0	807	32	0	
6	0	0	0	0	505	512	0	801	31	0	
7	0	0	0	0	512	511	0	807	32	0	
8	0	0	0	0	516	510	1	812	31	0	
9	0	0	0	0	512	511	0	815	32	0	
10	0	0	0	0	511	511	0	815	32	0	
11	0	0	0	0	515	512	0	801	31	0	
12	0	0	0	0	515	513	1	775	32	0	
13	0	0	0	0	507	511	0	753	32	0	
14	0	0	0	0	511	513	0	742	31	0	
15	0	0	0	0	515	512	0	736	32	0	
0	0	0	0	0	522	510	1	742	32	0	
1	0	0	0	0	511	510	0	754	32	0	
2	0	0	0	0	511	510	0	754	32	0	
3	0	0	0	0	514	511	0	746	32	0	
4	0	0	0	0	505	509	1	729	32	0	
5	0	0	0	0	510	510	0	712	31	0	
6	0	0	0	0	508	509	0	700	31	0	
7	0	0	0	0	510	508	0	686	31	0	
8	0	0	0	0	515	508	1	668	31	0	
9	0	0	0	0	510	508	0	663	32	0	
10	0	0	0	0	512	508	0	665	32	0	
11	0	0	0	0	509	510	0	665	32	0	
12	0	0	0	0	512	510	1	668	32	0	
13	0	0	0	0	509	511	0	664	32	0	
14	0	0	0	0	508	511	0	675	31	0	
15	0	0	0	0	511	511	0	673	32	0	
0	0	0	0	0	505	511	0	666	32	0	
1	0	0	0	0	510	511	0	661	32	0	
2	0	0	0	0	513	512	0	660	32	0	
3	0	0	0	0	512	511	0	659	31	0	
4	0	0	0	0	509	508	1	652	32	0	
5	0	0	0	0	511	508	0	657	32	0	
6	0	0	0	0	510	510	0	675	31	0	
7	0	0	0	0	519	512	0	692	31	0	
8	0	0	0	0	508	511	1	701	31	0	
9	0	0	0	0	508	511	0	702	31	0	
10	0	0	0	0	505	512	0	709	32	0	
11	0	0	0	0	515	513	0	719	31	0	
12	0	0	0	0	513	514	1	720	31	0	
13	0	0	0	0	510	515	0	708	31	0	
14	0	0	0	0	512	516	0	701	31	0	
15	0	0	0	0	512	515	0	704	31	0	
0	0	0	0	0	513	513	1	716	31	0	
1	0	0	0	0	508	513	0	724	31	0	
2	0	0	0	0	510	511	0	722	32	0	
3	0	0	0	0	513	512	0	707	31	0	
4	0	0	0	0	506	512	0	680	31	0	
5	0	0	0	0	511	511	0	653	31	0	
6	0	0	0	0	513	513	0	635	31	0	
7	0	0	0	0	504	513	0	632	31	0	
8	0	0	0	0	509	513	1	633	31	0	
9	0	0	0	0	515	511	0	636	32	0	
10	0	0	0	0	510	511	0	642	32	0	
11	0	0	0	0	512	510	0	649	31	0	
12	0	0	0	0	507	511	1	656	31	0	
13	0	0	0	0	515	512	0	667	31	0	
14	0	0	0	0	513	511	0	677	31	0	
15	0	0	0	0	508	513	0	674	31	0	
0	0	0	0	0	508	513	1	665	31	0	
1	0	0	0	0	508	511	0	664	31	0	
2	0	0	0	0	511	510	0	675	32	0	
3	0	0	0	0	506	512	0	687	31	0	
4	0	0	0	0	511	511	1	690	31	0	
5	0	0	0	0	511	511	0	688	31	0	
6	0	0	0	0	506	509	0	690	31	0	
7	0	0	0	0	508	511	0	689	31	0	
8	0	0	0	0	511	511	1	686	31	0	
9	0	0	0	0	511	509	0	682	31	0	
10	0	0	0	0	509	509	0	684	32	0	
11	0	0	0	0	506	510	0	685	31	0	
12	0	0	0	0	500	509	1	685	32	0	
13	0	0	0	0	511	511	0	684	31	0	
14	0	0	0	0	520	512	0	685	31	0	
15	0	0	0	0	515	512	0	692	31	0	
0	0	0	0	0	508	513	1	689	31	0	
1	0	0	0	0	508	511	0	674	32	0	
2	0	0	0	0	517	510	0	652	32	0	
3	0	0	0	0	508	511	0	646	31	0	
4	0	0	0	0	512	511	1	646	32	0	
5	0	0	0	0	512	513	0	647	31	0	
6	0	0	0	0	515	512	0	651	31	0	
7	0	0	0	0	512	511	0	653	31	0	
8	0	0	0	0	505	511	1	645	31	0	
9	0	0	0	0	508	508	0	638	32	0	
10	0	0	0	0	509	508	0	629	32	0	
11	0	0	0	0	509	508	0	618	32	0	
12	0	0	0	0	512	508	0	603	32	0	
13	0	0	0	0	503	509	0	581	32	0	
14	0	0	0	0	509	510	0	567	31	0	
15	0	0	0	0	512	512	0	566	32	0	
0	0	0	0	0	509	511	1	573	31	0	
1	0	0	0	0	502	510	0	579	32	0	
2	0	0	0	0	509	510	0	579	32	0	
3	0	0	0	0	509	511	0	576	32	0	
4	0	0	0	0	511	508	0	568	32	0	
5	0	0	0	0	508	509	0	551	32	0	
6	0	0	0	0	511	509	0	531	31	0	
7	0	0	0	0	507	510	0	522	32	0	
8	0	0	0	0	511	511	1	525	32	0	
9	0	0	0	0	514	513	0	535	32	0	
10	0	0	0	0	513	512	0	551	32	0	
11	0	0	0	0	519	512	0	573	32	0	
12	0	0	0	0	513	513	1	585	32	0	
13	0	0	0	0	511	512	0	590	32	0	
14	0	0	0	0	508	512	0	598	31	0	
15	0	0	0	0	515	513	0	607	32	0	
0	0	0	0	0	513	511	0	608	32	0	
1	0	0	0	0	513	512	0	608	32	0	
2	0	0	0	0	507	514	0	606	32	0	
3	0	0	0	0	511	512	0	597	32	0	
4	0	0	0	0	510	511	1	584	32	0	
5	0	0	0	0	513	511	0	580	32	0	
6	0	0	0	0	513	512	0	587	31	0	
7	0	0	0	0	504	511	0	599	32	0	
8	0	0	0	0	509	511	1	608	31	0	
9	0	0	0	0	504	512	0	619	32	0	
10	0	0	0	0	512	512	0	624	32	0	
11	0	0	0	0	510	512	0	614	32	0	
12	0	0	0	0	515	512	1	591	32	0	
13	0	0	0	0	510	513	0	562	32	0	
14	0	0	0	0	503	513	0	540	31	0	
15	0	0	0	0	511	513	0	533	32	0	
0	0	0	0	0	516	513	1	545	31	0	
1	0	0	0	0	512	512	0	561	32	0	
2	0	0	0	0	511	514	0	576	32	0	
3	0	0	0	0	511	514	0	597	32	0	
4	0	0	0	0	508	514	0	615	32	0	
5	0	0	0	0	506	513	0	611	32	0	
6	0	0	0	0	514	511	0	607	31	0	
7	0	0	0	0	512	512	0	603	32	0	
8	0	0	0	0	506	511	1	603	31	0	
9	0	0	0	0	513	510	0	604	32	0	
10	0	0	0	0	512	510	0	591	32	0	
11	0	0	0	0	510	513	0	569	32	0	
12	0	0	0	0	500	515	1	548	32	0	
13	0	0	0	0	511	513	0	540	31	0	
14	0	0	0	0	512	513	0	546	31	0	
15	0	0	0	0	503	513	0	558	31	0	
0	0	0	0	0	508	513	1	570	31	0	
1	0	0	0	0	501	510	0	575	31	0	
2	0	0	0	0	510	509	0	574	32	0	
3	0	0	0	0	515	511	0	577	32	0	
4	0	0	0	0	511	510	1	586	32	0	
5	0	0	0	0	511	509	0	604	31	0	
6	0	0	0	0	515	510	0	617	31	0	
7	0	0	0	0	511	512	0	617	31	0	
8	0	0	0	0	515	514	1	616	31	0	
9	0	0	0	0	510	512	0	593	32	0	
10	0	0	0	0	511	512	0	577	32	0	
11	0	0	0	0	509	513	0	558	32	0	
12	0	0	0	0	515	511	1	550	32	0	
13	0	0	0	0	509	510	0	551	32	0	
14	0	0	0	0	505	511	0	556	31	0	
15	0	0	0	0	511	512	0	558	31	0	
0	0	0	0	0	511	511	1	550	32	0	
1	0	0	0	0	511	512	0	543	32	0	
2	0	0	0	0	510	512	0	531	32	0	
3	0	0	0	0	510	512	0	512	32	0	
4	0	0	0	0	509	514	1	488	32	0	
5	0	0	0	0	513	512	0	474	31	0	
6	0	0	0	0	510	512	0	476	31	0	
7	0	0	0	0	512	513	0	488	31	0	
8	0	0	0	0	507	514	1	495	31	0	
9	0	0	0	0	502	513	0	511	32	0	
10	0	0	0	0	511	515	0	499	32	0	
11	0	0	0	0	508	512	0	496	32	0	
12	0	0	0	0	514	514	1	514	32	0	
13	0	0	0	0	513	513	0	507	32	0	
14	0	0	0	0	507	515	0	515	31	0	
15	0	0	0	0	510	514	0	516	31	0	
0	0	0	0	0	508	514	1	509	31	0	
1	0	0	0	0	510	511	0	509	32	0	
2	0	0	0	0	504	512	0	498	32	0	
3	0	0	0	0	514	511	0	484	32	0	
4	0	0	0	0	508	512	0	465	32	0	
5	0	0	0	0	511	512	0	455	31	0	
6	0	0	0	0	516	512	0	456	31	0	
7	0	0	0	0	508	516	0	464	31	0	
8	0	0	0	0	515	515	0	465	31	0	
9	0	0	0	0	503	515	0	466	32	0	
10	0	0	0	0	510	516	0	474	32	0	
11	0	0	0	0	511	518	0	491	32	0	
12	0	0	0	0	512	518	1	502	32	0	
13	0	0	0	0	512	517	0	508	32	0	
14	0	0	0	0	511	516	0	505	31	0	
15	0	0	0	0	508	515	0	502	32	0	
0	0	0	0	0	510	516	1	505	31	0	
1	0	0	0	0	509	515	0	520	32	0	
2	0	0	0	0	512	514	0	534	32	0	
3	0	0	0	0	507	515	0	544	31	0	
4	0	0	0	0	516	516	1	542	32	0	
5	0	0	0	0	515	514	0	539	31	0	
6	0	0	0	0	514	515	0	531	31	0	
7	0	0	0	0	507	513	0	527	31	0	
8	0	0	0	0	511	512	1	526	31	0	
9	0	0	0	0	504	511	0	519	31	0	
10	0	0	0	0	510	509	0	503	32	0	
11	0	0	0	0	511	510	0	492	31	0	
12	0	0	0	0	507	510	1	497	31	0	
13	0	0	0	0	507	509	0	511	31	0	
14	0	0	0	0	519	510	0	524	31	0	
15	0	0	0	0	513	512	0	531	31	0	
0	0	0	0	0	513	511	1	535	31	0	
1	0	0	0	0	513	512	0	532	32	0	
2	0	0	0	0	510	512	0	521	32	0	
3	0	0	0	0	504	512	0	504	32	0	
4	0	0	0	0	510	512	1	483	32	0	
5	0	0	0	0	509	511	0	474	31	0	
6	0	0	0	0	508	510	0	457	31	0	
7	0	0	0	0	507	511	0	446	31	0	
8	0	0	0	0	507	512	1	439	31	0	
9	0	0	0	0	509	511	0	451	32	0	
10	0	0	0	0	511	511	0	467	32	0	
11	0	0	0	0	505	513	0	472	32	0	
12	0	0	0	0	509	514	1	487	32	0	
13	0	0	0	0	515	512	0	505	32	0	
14	0	0	0	0	509	513	0	516	31	0	
15	0	0	0	0	510	512	0	523	32	0	
0	0	0	0	0	512	512	1	528	32	0	
1	0	0	0	0	506	511	0	528	32	0	
2	0	0	0	0	512	511	0	518	32	0	
3	0	0	0	0	515	511	0	504	32	0	
4	0	0	0	0	511	509	1	492	32	0	
5	0	0	0	0	516	508	0	483	32	0	
6	0	0	0	0	508	508	0	472	31	0	
7	0	0	0	0	512	509	0	471	31	0	
8	0	0	0	0	514	508	0	473	31	0	
9	0	0	0	0	505	510	0	462	32	0	
10	0	0	0	0	513	510	0	444	32	0	
11	0	0	0	0	514	512	0	426	31	0	
12	0	0	0	0	503	513	1	413	32	0	
13	0	0	0	0	513	513	0	412	31	0	
14	0	0	0	0	510	513	0	421	31	0	
15	0	0	0	0	500	513	0	438	31	0	
0	0	0	0	0	513	513	0	457	31	0	
1	0	0	0	0	513	513	0	473	31	0	
2	0	0	0	0	510	514	0	487	32	0	
3	0	0	0	0	510	513	0	480	31	0	
4	0	0	0	0	508	512	1	471	32	0	
5	0	0	0	0	509	510	0	459	31	0	
6	0	0	0	0	506	509	0	453	31	0	
7	0	0	0	0	515	512	0	455	31	0	
8	0	0	0	0	504	513	1	448	31	0	
9	0	0	0	0	511	514	0	435	32	0	
10	0	0	0	0	510	516	0	424	32	0	
11	0	0	0	0	507	517	0	425	31	0	
12	0	0	0	0	512	515	0	443	32	0	
13	0	0	0	0	515	515	0	466	31	0	
14	0	0	0	0	510	515	0	475	31	0	
15	0	0	0	0	507	515	0	481	31	0	
0	0	0	0	0	506	512	1	488	31	0	
1	0	0	0	0	510	511	0	494	32	0	
2	0	0	0	0	509	511	0	492	32	0	
3	0	0	0	0	509	511	0	486	31	0	
4	0	0	0	0	512	514	1	476	32	0	
5	0	0	0	0	504	514	0	470	32	0	
6	0	0	0	0	509	513	0	458	31	0	
7	0	0	0	0	511	515	0	436	32	0	
8	0	0	0	0	511	514	1	415	31	0	
9	0	0	0	0	511	512	0	394	32	0	
10	0	0	0	0	505	513	0	377	32	0	
11	0	0	0	0	514	513	0	387	32	0	
12	0	0	0	0	509	514	1	387	32	0	
13	0	0	0	0	505	515	0	405	32	0	
14	0	0	0	0	507	515	0	423	31	0	
15	0	0	0	0	515	515	0	441	31	0	
0	0	0	0	0	512	515	0	461	31	0	
1	0	0	0	0	511	513	0	471	32	0	
2	0	0	0	0	508	513	0	479	32	0	
3	0	0	0	0	508	515	0	471	32	0	
4	0	0	0	0	512	515	0	462	32	0	
5	0	0	0	0	508	514	0	469	32	0	
6	0	0	0	0	508	515	0	490	31	0	
7	0	0	0	0	513	514	0	511	31	0	
8	0	0	0	0	508	511	1	516	31	0	
9	0	0	0	0	513	510	0	497	32	0	
10	0	0	0	0	511	511	0	473	32	0	
11	0	0	0	0	514	512	0	455	32	0	
12	0	0	0	0	515	512	0	445	32	0	
13	0	0	0	0	513	514	0	444	32	0	
14	0	0	0	0	506	514	0	440	31	0	
15	0	0	0	0	499	513	0	438	32	0	
0	0	0	0	0	507	513	0	445	32	0	
1	0	0	0	0	511	512	0	466	32	0	
2	0	0	0	0	513	513	0	486	32	0	
3	0	0	0	0	513	515	0	503	32	0	
4	0	0	0	0	512	515	1	515	32	0	
5	0	0	0	0	506	513	0	523	32	0	
6	0	0	0	0	510	513	0	531	31	0	
7	0	0	0	0	505	514	0	543	32	0	
8	0	0	0	0	506	514	1	548	32	0	
9	0	0	0	0	512	513	0	545	32	0	
10	0	0	0	0	515	512	0	544	32	0	
11	0	0	0	0	513	512	0	543	32	0	
12	0	0	0	0	507	513	1	542	32	0	
13	0	0	0	0	505	512	0	551	32	0	
14	0	0	0	0	513	511	0	559	31	0	
15	0	0	0	0	512	511	0	566	32	0	
0	0	0	0	0	513	512	0	574	32	0	
1	0	0	0	0	502	513	0	572	32	0	
2	0	0	0	0	511	513	0	558	32	0	
3	0	0	0	0	509	513	0	544	32	0	
4	0	0	0	0	508	513	1	536	32	0	
5	0	0	0	0	513	510	0	519	32	0	
6	0	0	0	0	507	511	0	523	31	0	
7	0	0	0	0	511	512	0	534	32	0	
8	0	0	0	0	512	510	0	531	32	0	
9	0	0	0	0	517	510	0	524	32	0	
10	0	0	0	0	512	509	0	525	32	0	
11	0	0	0	0	512	511	0	519	32	0	
12	0	0	0	0	507	509	1	507	32	0	
13	0	0	0	0	511	510	0	504	32	0	
14	0	0	0	0	513	512	0	504	31	0	
15	0	0	0	0	511	512	0	505	31	0	
0	0	0	0	0	507	513	1	499	31	0	
1	0	0	0	0	507	511	0	491	31	0	
2	0	0	0	0	511	512	0	481	32	0	
3	0	0	0	0	518	514	0	479	31	0	
4	0	0	0	0	511	513	0	475	31	0	
5	0	0	0	0	502	511	0	469	31	0	
6	0	0	0	0	515	511	0	460	31	0	
7	0	0	0	0	519	511	0	463	31	0	
8	0	0	0	0	508	509	0	474	31	0	
9	0	0	0	0	507	509	0	488	31	0	
10	0	0	0	0	501	510	0	505	31	0	
11	0	0	0	0	506	511	0	516	31	0	
12	0	0	0	0	506	510	0	523	31	0	
13	0	0	0	0	509	511	0	525	31	0	
14	0	0	0	0	510	511	0	533	31	0	
15	0	0	0	0	509	512	0	547	31	0	
0	0	0	0	0	509	512	1	560	31	0	
1	0	0	0	0	513	512	0	571	32	0	
2	0	0	0	0	513	513	0	588	32	0	
3	0	0	0	0	513	514	0	593	32	0	
4	0	0	0	0	513	512	1	591	32	0	
5	0	0	0	0	507	511	0	585	32	0	
6	0	0	0	0	511	512	0	583	31	0	
7	0	0	0	0	509	513	0	595	32	0	
8	0	0	0	0	515	512	0	611	32	0	
9	0	0	0	0	517	511	0	629	32	0	
10	0	0	0	0	507	511	0	639	32	0	
11	0	0	0	0	510	511	0	628	32	0	
12	0	0	0	0	513	510	1	592	32	0	
13	0	0	0	0	511	510	0	547	32	0	
14	0	0	0	0	514	511	0	513	31	0	
15	0	0	0	0	506	512	0	500	32	0	
0	0	0	0	0	505	511	0	500	32	0	
1	0	0	0	0	515	513	0	504	32	0	
2	0	0	0	0	509	511	0	513	32	0	
3	0	0	0	0	515	512	0	521	32	0	
4	0	0	0	0	511	512	1	524	32	0	
5	0	0	0	0	505	512	0	527	31	0	
6	0	0	0	0	510	511	0	529	31	0	
7	0	0	0	0	507	512	0	520	32	0	
8	0	0	0	0	505	513	1	509	31	0	
9	0	0	0	0	513	512	0	495	32	0	
10	0	0	0	0	515	513	0	479	32	0	
11	0	0	0	0	510	512	0	454	32	0	
12	0	0	0	0	504	512	0	432	32	0	
13	0	0	0	0	510	512	0	420	32	0	
14	0	0	0	0	514	514	0	417	32	0	
15	0	0	0	0	519	516	0	427	32	0	
0	0	0	0	0	507	515	1	446	31	0	
1	0	0	0	0	511	513	0	472	32	0	
2	0	0	0	0	508	512	0	494	32	0	
3	0	0	0	0	511	512	0	502	32	0	
4	0	0	0	0	515	512	0	506	32	0	
5	0	0	0	0	509	512	0	514	32	0	
6	0	0	0	0	512	512	0	526	32	0	
7	0	0	0	0	511	513	0	534	32	0	
8	0	0	0	0	508	511	1	532	31	0	
9	0	0	0	0	507	510	0	528	32	0	
10	0	0	0	0	506	511	0	523	32	0	
11	0	0	0	0	508	511	0	518	32	0	
12	0	0	0	0	513	514	1	517	32	0	
13	0	0	0	0	509	514	0	528	32	0	
14	0	0	0	0	511	513	0	567	32	0	
15	0	0	0	0	516	513	0	611	32	0	
0	0	0	0	0	512	513	1	629	32	0	
1	0	0	0	0	509	510	0	624	32	0	
2	0	0	0	0	507	510	0	608	33	0	
3	0	0	0	0	510	510	0	589	32	0	
4	0	0	0	0	510	511	1	575	33	0	
5	0	0	0	0	510	511	0	564	32	0	
6	0	0	0	0	509	511	0	558	31	0	
7	0	0	0	0	512	512	0	550	30	0	
8	0	0	0	0	511	511	0	540	29	0	
9	0	0	0	0	510	511	0	516	29	0	
10	0	0	0	0	521	512	0	499	29	0	
11	0	0	0	0	513	511	0	504	29	0	
12	0	0	0	0	508	510	1	519	30	0	
13	0	0	0	0	515	511	0	527	30	0	
14	0	0	0	0	512	511	0	523	30	0	
15	0	0	0	0	506	511	0	515	31	0	
0	0	0	0	0	513	512	1	506	31	0	
1	0	0	0	0	513	511	0	502	32	0	
2	0	0	0	0	508	513	0	497	32	0	
3	0	0	0	0	504	513	0	491	32	0	
4	0	0	0	0	507	514	1	500	33	0	
5	0	0	0	0	504	512	0	519	33	0	
6	0	0	0	0	504	511	0	536	33	0	
7	0	0	0	0	510	512	0	538	33	0	
8	0	0	0	0	514	512	1	529	33	0	
9	0	0	0	0	511	512	0	522	33	0	
10	0	0	0	0	508	511	0	524	33	0	
11	0	0	0	0	511	509	0	526	32	0	
12	0	0	0	0	516	510	1	527	32	0	
13	0	0	0	0	510	510	0	530	32	0	
14	0	0	0	0	510	510	0	532	31	0	
15	0	0	0	0	515	512	0	529	31	0	
0	0	0	0	0	512	512	1	530	31	0	
1	0	0	0	0	510	512	0	533	31	0	
2	0	0	0	0	509	513	0	536	31	0	
3	0	0	0	0	513	514	0	531	31	0	
4	0	0	0	0	511	516	1	524	31	0	
5	0	0	0	0	512	515	0	523	30	0	
6	0	0	0	0	510	515	0	527	30	0	
7	0	0	0	0	508	516	0	532	31	0	
8	0	0	0	0	509	515	1	534	31	0	
9	0	0	0	0	511	513	0	527	32	0	
10	0	0	0	0	517	513	0	509	32	0	
11	0	0	0	0	513	511	0	487	32	0	
12	0	0	0	0	510	511	0	461	32	0	
13	0	0	0	0	504	512	0	439	32	0	
14	0	0	0	0	509	511	0	427	32	0	
15	0	0	0	0	505	512	0	438	32	0	
0	0	0	0	0	509	512	0	459	32	0	
1	0	0	0	0	510	512	0	479	32	0	
2	0	0	0	0	508	511	0	496	32	0	
3	0	0	0	0	513	514	0	511	32	0	
4	0	0	0	0	513	513	1	509	32	0	
5	0	0	0	0	512	512	0	499	31	0	
6	0	0	0	0	505	513	0	493	31	0	
7	0	0	0	0	515	512	0	494	31	0	
8	0	0	0	0	510	514	1	504	31	0	
9	0	0	0	0	509	512	0	521	31	0	
10	0	0	0	0	513	513	0	541	32	0	
11	0	0	0	0	516	514	0	559	32	0	
12	0	0	0	0	503	515	1	572	32	0	
13	0	0	0	0	514	514	0	585	32	0	
14	0	0	0	0	511	514	0	592	32	0	
15	0	0	0	0	510	513	0	590	32	0	
0	0	0	0	0	506	513	0	578	32	0	
1	0	0	0	0	511	512	0	569	32	0	
2	0	0	0	0	514	509	0	556	32	0	
3	0	0	0	0	508	510	0	535	32	0	
4	0	0	0	0	506	510	1	521	32	0	
5	0	0	0	0	517	510	0	521	32	0	
6	0	0	0	0	507	510	0	534	31	0	
7	0	0	0	0	508	510	0	535	31	0	
8	0	0	0	0	507	511	0	521	31	0	
9	0	0	0	0	500	512	0	517	31	0	
10	0	0	0	0	511	512	0	524	31	0	
11	0	0	0	0	508	510	0	532	31	0	
12	0	0	0	0	514	508	1	546	31	0	
13	0	0	0	0	506	510	0	571	31	0	
14	0	0	0	0	513	510	0	599	31	0	
15	0	0	0	0	511	511	0	621	31	0	
0	0	0	0	0	511	512	1	636	31	0	
1	0	0	0	0	519	511	0	652	32	0	
2	0	0	0	0	512	513	0	664	32	0	
3	0	0	0	0	505	512	0	667	32	0	
4	0	0	0	0	512	510	1	653	32	0	
5	0	0	0	0	506	510	0	637	32	0	
6	0	0	0	0	507	511	0	627	32	0	
7	0	0	0	0	510	512	0	618	32	0	
8	0	0	0	0	516	512	0	599	32	0	
9	0	0	0	0	513	512	0	584	32	0	
10	0	0	0	0	510	513	0	579	32	0	
11	0	0	0	0	504	513	0	578	32	0	
12	0	0	0	0	512	511	0	584	31	0	
13	0	0	0	0	512	513	0	597	31	0	
14	0	0	0	0	521	513	0	613	31	0	
15	0	0	0	0	506	514	0	625	31	0	
0	0	0	0	0	515	514	1	630	31	0	
1	0	0	0	0	511	515	0	623	31	0	
2	0	0	0	0	507	513	0	612	31	0	
3	0	0	0	0	511	513	0	605	31	0	
4	0	0	0	0	500	512	1	604	31	0	
5	0	0	0	0	502	511	0	597	31	0	
6	0	0	0	0	514	512	0	588	31	0	
7	0	0	0	0	512	513	0	595	31	0	
8	0	0	0	0	512	511	1	603	32	0	
9	0	0	0	0	512	512	0	608	32	0	
10	0	0	0	0	509	513	0	620	32	0	
11	0	0	0	0	507	513	0	642	32	0	
12	0	0	0	0	505	514	1	658	33	0	
13	0	0	0	0	505	511	0	663	32	0	
14	0	0	0	0	519	512	0	664	32	0	
15	0	0	0	0	514	513	0	674	32	0	
0	0	0	0	0	508	514	1	684	32	0	
1	0	0	0	0	507	513	0	687	32	0	
2	0	0	0	0	512	513	0	686	32	0	
3	0	0	0	0	513	513	0	680	32	0	
4	0	0	0	0	506	512	1	670	32	0	
5	0	0	0	0	509	513	0	653	32	0	
6	0	0	0	0	513	513	0	632	31	0	
7	0	0	0	0	516	516	0	608	32	0	
8	0	0	0	0	501	515	1	589	31	0	
9	0	0	0	0	515	513	0	591	31	0	
10	0	0	0	0	510	513	0	610	32	0	
11	0	0	0	0	507	514	0	626	31	0	
12	0	0	0	0	508	513	1	636	31	0	
13	0	0	0	0	510	513	0	643	31	0	
14	0	0	0	0	514	514	0	665	31	0	
15	0	0	0	0	509	515	0	701	32	0	
0	0	0	0	0	510	513	0	731	32	0	
1	0	0	0	0	513	514	0	747	32	0	
2	0	0	0	0	510	515	0	760	32	0	
3	0	0	0	0	508	515	0	762	32	0	
4	0	0	0	0	508	513	1	768	32	0	
5	0	0	0	0	503	512	0	779	32	0	
6	0	0	0	0	510	513	0	781	32	0	
7	0	0	0	0	512	514	0	769	32	0	
8	0	0	0	0	510	513	1	732	32	0	
9	0	0	0	0	513	513	0	678	32	0	
10	0	0	0	0	515	513	0	607	32	0	
11	0	0	0	0	507	515	0	526	32	0	
12	0	0	0	0	512	515	1	450	32	0	
13	0	0	0	0	516	517	0	379	32	0	
14	0	0	0	0	513	517	0	313	31	0	
15	0	0	0	0	511	516	0	264	31	0	
0	0	0	0	0	507	518	1	233	31	0	
1	0	0	0	0	506	515	0	186	32	0	
2	0	0	0	0	510	515	0	126	32	0	
3	0	0	0	0	507	515	0	52	32	0	
4	0	0	0	0	508	514	0	0	32	0	
5	0	0	0	0	511	514	0	0	32	0	
6	0	0	0	0	510	515	0	0	32	0	
7	0	0	0	0	505	516	0	0	32	0	
8	0	0	0	0	515	516	1	0	31	0	
9	0	0	0	0	511	512	0	0	32	0	
10	0	0	0	0	516	513	0	0	32	0	
11	0	0	0	0	504	513	0	0	32	0	
12	0	0	0	0	518	512	1	0	32	0	
13	0	0	0	0	510	511	0	0	32	0	
14	0	0	0	0	508	511	0	0	32	0	
15	0	0	0	0	500	511	0	0	32	0	
0	0	0	0	0	507	513	1	0	32	0	
1	0	0	0	0	509	511	0	0	32	0	
2	0	0	0	0	513	512	0	0	33	0	
3	0	0	0	0	510	512	0	0	32	0	
4	0	0	0	0	508	513	1	0	32	0	
5	0	0	0	0	512	512	0	0	32	0	
6	0	0	0	0	505	510	0	0	32	0	
7	0	0	0	0	513	512	0	0	32	0	
8	0	0	0	0	516	511	0	0	32	0	
9	0	0	0	0	514	510	0	0	32	0	
10	0	0	0	0	509	512	0	0	32	0	
11	0	0	0	0	507	512	0	0	31	0	
12	0	0	0	0	512	511	1	0	31	0	
13	0	0	0	0	508	511	0	0	29	0	
14	0	0	0	0	503	511	0	0	28	0	
15	0	0	0	0	508	512	0	0	28	0	
0	0	0	0	0	509	513	0	0	28	0	
1	0	0	0	0	511	513	0	0	29	0	
2	0	0	0	0	513	513	0	0	29	0	
3	0	0	0	0	508	513	0	0	30	0	
4	0	0	0	0	504	514	1	0	31	0	
5	0	0	0	0	518	510	0	0	31	0	
6	0	0	0	0	509	511	0	0	31	0	
7	0	0	0	0	502	510	0	0	31	0	
8	0	0	0	0	507	510	0	0	31	0	
9	0	0	0	0	509	508	0	0	32	0	
10	0	0	0	0	504	507	0	0	32	0	
11	0	0	0	0	510	509	0	0	32	0	
12	0	0	0	0	514	509	0	0	32	0	
13	0	0	0	0	516	508	0	0	32	0	
14	0	0	0	0	509	510	0	0	33	0	
15	0	0	0	0	513	509	0	0	32	0	
0	0	0	0	0	514	510	1	0	32	0	
1	0	0	0	0	502	509	0	0	32	0	
2	0	0	0	0	515	510	0	0	32	0	
3	0	0	0	0	508	509	0	0	32	0	
4	0	0	0	0	507	509	1	0	32	0	
5	0	0	0	0	513	509	0	0	32	0	
6	0	0	0	0	509	510	0	0	32	0	
7	0	0	0	0	509	510	0	0	33	0	
8	0	0	0	0	512	510	0	0	33	0	
9	0	0	0	0	506	510	0	0	32	0	
10	0	0	0	0	513	511	0	0	32	0	
11	0	0	0	0	513	515	0	0	32	0	
12	0	0	0	0	516	515	1	0	32	0	
13	0	0	0	0	500	515	0	0	32	0	
14	0	0	0	0	507	514	0	0	32	0	
15	0	0	0	0	511	514	0	0	32	0	
0	0	0	0	0	515	512	1	0	32	0	
1	0	0	0	0	510	512	0	0	32	0	
2	0	0	0	0	512	513	0	0	33	0	
3	0	0	0	0	519	512	0	0	32	0	
4	0	0	0	0	508	511	0	0	32	0	
5	0	0	0	0	513	512	0	0	32	0	
6	0	0	0	0	502	512	0	0	32	0	
7	0	0	0	0	508	512	0	0	32	0	
8	0	0	0	0	509	513	1	0	31	0	
9	0	0	0	0	514	510	0	0	32	0	
10	0	0	0	0	512	510	0	0	32	0	
11	0	0	0	0	516	508	0	0	32	0	
12	0	0	0	0	499	511	1	0	33	0	
13	0	0	0	0	510	511	0	0	32	0	
14	0	0	0	0	507	511	0	0	32	0	
15	0	0	0	0	507	512	0	0	32	0	
0	0	0	0	0	511	512	1	0	31	0	
1	0	0	0	0	514	513	0	0	31	0	
2	0	0	0	0	504	514	0	0	31	0	
3	0	0	0	0	515	513	0	0	29	0	
4	0	0	0	0	511	513	0	0	27	0	
5	0	0	0	0	515	513	0	0	26	0	
6	0	0	0	0	513	514	0	0	25	0	
7	0	0	0	0	510	513	0	0	25	0	
8	0	0	0	0	508	511	0	0	27	0	
9	0	0	0	0	509	511	0	0	29	0	
10	0	0	0	0	510	511	0	0	30	0	
11	0	0	0	0	507	512	0	0	31	0	
12	0	0	0	0	506	513	0	0	31	0	
13	0	0	0	0	510	511	0	0	30	0	
14	0	0	0	0	509	513	0	0	30	0	
15	0	0	0	0	508	514	0	0	31	0	
0	0	0	0	0	506	514	1	0	31	0	
1	0	0	0	0	511	511	0	0	33	0	
2	0	0	0	0	509	511	0	0	34	0	
3	0	0	0	0	506	512	0	0	34	0	
4	0	0	0	0	501	512	0	0	33	0	
5	0	0	0	0	508	510	0	0	32	0	
6	0	0	0	0	516	510	0	0	32	0	
7	0	0	0	0	509	510	0	0	32	0	
8	0	0	0	0	505	509	0	0	32	0	
9	0	0	0	0	519	510	0	0	33	0	
10	0	0	0	0	514	511	0	0	33	0	
11	0	0	0	0	508	510	0	0	33	0	
12	0	0	0	0	513	511	0	0	33	0	
13	0	0	0	0	512	512	0	0	33	0	
14	0	0	0	0	508	511	0	0	33	0	
15	0	0	0	0	504	512	0	0	33	0	
0	0	0	0	0	513	513	1	0	33	0	
1	0	0	0	0	513	511	0	0	33	0	
2	0	0	0	0	512	511	0	0	32	0	
3	0	0	0	0	509	511	0	0	32	0	
4	0	0	0	0	513	509	0	0	31	0	
5	0	0	0	0	508	508	0	0	32	0	
6	0	0	0	0	514	509	0	0	33	0	
7	0	0	0	0	513	510	0	0	33	0	
8	0	0	0	0	512	510	1	0	33	0	
9	0	0	0	0	503	509	0	0	33	0	
10	0	0	0	0	513	510	0	0	32	0	
11	0	0	0	0	511	512	0	0	32	0	
12	0	0	0	0	505	512	0	0	31	0	
13	0	0	0	0	513	512	0	0	32	0	
14	0	0	0	0	507	511	0	0	32	0	
15	0	0	0	0	509	511	0	0	32	0	
0	0	0	0	0	511	511	0	0	33	0	
1	0	0	0	0	506	511	0	0	32	0	
2	0	0	0	0	511	512	0	0	32	0	
3	0	0	0	0	508	512	0	0	32	0	
4	0	0	0	0	517	511	0	0	32	0	
5	0	0	0	0	511	513	0	0	33	0	
6	0	0	0	0	508	513	0	0	32	0	
7	0	0	0	0	509	513	0	0	32	0	
8	0	0	0	0	519	513	0	0	32	0	
9	0	0	0	0	501	513	0	0	31	0	
10	0	0	0	0	513	516	0	0	32	0	
11	0	0	0	0	512	516	0	0	32	0	
12	0	0	0	0	513	516	0	0	33	0	
13	0	0	0	0	504	514	0	0	33	0	
14	0	0	0	0	508	513	0	0	32	0	
15	0	0	0	0	504	513	0	0	30	0	
0	0	0	0	0	506	511	0	0	28	0	
1	0	0	0	0	513	512	0	0	27	0	
2	0	0	0	0	514	513	0	0	27	0	
3	0	0	0	0	511	514	0	0	27	0	
4	0	0	0	0	509	513	0	0	28	0	
5	0	0	0	0	512	511	0	0	30	0	
6	0	0	0	0	512	510	0	0	31	0	
7	0	0	0	0	505	512	0	0	31	0	
8	0	0	0	0	515	511	1	0	30	0	
9	0	0	0	0	505	510	0	0	30	0	
10	0	0	0	0	505	510	0	0	30	0	
11	0	0	0	0	511	512	0	0	30	0	
12	0	0	0	0	508	510	0	0	31	0	
13	0	0	0	0	514	511	0	0	32	0	
14	0	0	0	0	514	512	0	0	33	0	
15	0	0	0	0	510	511	0	0	34	0	
0	0	0	0	0	511	509	1	0	33	0	
1	0	0	0	0	505	508	0	0	34	0	
2	0	0	0	0	506	509	0	0	33	0	
3	0	0	0	0	511	510	0	0	32	0	
4	0	0	0	0	511	510	0	0	32	0	
5	0	0	0	0	511	511	0	0	31	0	
6	0	0	0	0	508	512	0	0	31	0	
7	0	0	0	0	504	514	0	0	32	0	
8	0	0	0	0	505	512	0	0	33	0	
9	0	0	0	0	508	510	0	0	33	0	
10	0	0	0	0	510	510	0	0	34	0	
11	0	0	0	0	509	508	0	71	34	0	
12	0	0	0	0	511	509	0	119	33	0	
13	0	0	0	0	510	510	0	157	33	0	
14	0	0	0	0	507	509	0	204	32	0	
15	0	0	0	0	513	510	0	268	32	0	
0	0	0	0	0	516	510	0	335	31	0	
1	0	0	0	0	513	509	0	400	32	0	
2	0	0	0	0	508	510	0	461	33	0	
3	0	0	0	0	514	512	0	517	33	0	
4	0	0	0	0	509	511	1	574	33	0	
5	0	0	0	0	513	510	0	623	33	0	
6	0	0	0	0	508	511	0	668	33	0	
7	0	0	0	0	516	513	0	709	32	0	
8	0	0	0	0	509	512	0	744	30	0	
9	0	0	0	0	510	513	0	773	29	0	
10	0	0	0	0	513	513	0	812	29	0	
11	0	0	0	0	508	513	0	854	28	0	
12	0	0	0	0	505	512	0	894	30	0	
13	0	0	0	0	512	513	0	941	30	0	
14	0	0	0	0	515	514	0	989	32	0	
15	0	0	0	0	509	514	0	1017	32	0	
0	0	0	0	0	507	512	0	1019	32	0	
1	0	0	0	0	505	511	0	1018	32	0	
2	0	0	0	0	503	512	0	1018	31	0	
3	0	0	0	0	513	513	0	1018	30	0	
4	0	0	0	0	512	512	0	1018	31	0	
5	0	0	0	0	513	512	0	1018	31	0	
6	0	0	0	0	516	512	0	1018	32	0	
7	0	0	0	0	507	513	0	1018	33	0	
8	0	0	0	0	514	511	1	1019	33	0	
9	0	0	0	0	513	512	0	1018	34	0	
10	0	0	0	0	511	512	0	1018	33	0	
11	0	0	0	0	510	512	0	1018	32	0	
12	0	0	0	0	512	512	1	1019	32	0	
13	0	0	0	0	510	512	0	1018	32	0	
14	0	0	0	0	512	514	0	1018	31	0	
15	0	0	0	0	511	512	0	1018	31	0	
0	0	0	0	0	503	513	1	1019	32	0	
1	0	0	0	0	510	515	0	1018	32	0	
2	0	0	0	0	510	515	0	1018	33	0	
3	0	0	0	0	512	513	0	1018	33	0	
4	0	0	0	0	507	515	1	1019	33	0	
5	0	0	0	0	511	514	0	1018	33	0	
6	0	0	0	0	511	513	0	1018	32	0	
7	0	0	0	0	508	513	0	1018	31	0	
8	0	0	0	0	505	513	1	1019	30	0	
9	0	0	0	0	518	511	0	1018	31	0	
10	0	0	0	0	513	513	0	1018	31	0	
11	0	0	0	0	510	511	0	1018	32	0	
12	0	0	0	0	510	511	1	1018	33	0	
13	0	0	0	0	516	511	0	1018	33	0	
14	0	0	0	0	516	511	0	1018	32	0	
15	0	0	0	0	507	513	0	1018	32	0	
0	0	0	0	0	508	512	1	1018	31	0	
1	0	0	0	0	511	513	0	1018	31	0	
2	0	0	0	0	508	513	0	1018	31	0	
3	0	0	0	0	508	514	0	1018	31	0	
4	0	0	0	0	518	512	1	1019	31	0	
5	0	0	0	0	504	513	0	1018	31	0	
6	0	0	0	0	511	513	0	1018	31	0	
7	0	0	0	0	514	512	0	1018	31	0	
8	0	0	0	0	513	513	1	1019	31	0	
9	0	0	0	0	506	510	0	1018	31	0	
10	0	0	0	0	507	509	0	1019	31	0	
11	0	0	0	0	508	510	0	1018	31	0	
12	0	0	0	0	507	511	1	1018	30	0	
13	0	0	0	0	514	512	0	1018	30	0	
14	0	0	0	0	514	511	0	1018	30	0	
15	0	0	0	0	512	512	0	1018	31	0	
0	0	0	0	0	510	512	1	1019	31	0	
1	0	0	0	0	508	510	0	1018	32	0	
2	0	0	0	0	511	510	0	1018	32	0	
3	0	0	0	0	510	511	0	1018	32	0	
4	0	0	0	0	504	512	0	1019	31	0	
5	0	0	0	0	504	512	0	1018	31	0	
6	0	0	0	0	512	511	0	1018	31	0	
7	0	0	0	0	514	512	0	1018	31	0	
8	0	0	0	0	514	515	1	1019	31	0	
9	0	0	0	0	510	512	0	1018	32	0	
10	0	0	0	0	509	513	0	1018	32	0	
11	0	0	0	0	511	514	0	1018	32	0	
12	0	0	0	0	511	514	1	1019	32	0	
13	0	0	0	0	511	513	0	1019	32	0	
14	0	0	0	0	518	514	0	1018	32	0	
15	0	0	0	0	504	514	0	1018	32	0	
0	0	0	0	0	506	514	1	1019	32	0	
1	0	0	0	0	512	512	0	1019	32	0	
2	0	0	0	0	507	512	0	1018	32	0	
3	0	0	0	0	513	512	0	1018	31	0	
4	0	0	0	0	514	510	1	1018	32	0	
5	0	0	0	0	513	512	0	1018	32	0	
6	0	0	0	0	514	513	0	1018	32	0	
7	0	0	0	0	507	515	0	1018	32	0	
8	0	0	0	0	498	512	1	1018	32	0	
9	0	0	0	0	511	513	0	1019	31	0	
10	0	0	0	0	515	514	0	1018	31	0	
11	0	0	0	0	508	514	0	1018	31	0	
12	0	0	0	0	512	513	1	1019	31	0	
13	0	0	0	0	506	512	0	1018	31	0	
14	0	0	0	0	507	513	0	1018	31	0	
15	0	0	0	0	512	511	0	1018	31	0	
0	0	0	0	0	507	511	1	1019	31	0	
1	0	0	0	0	504	510	0	1018	31	0	
2	0	0	0	0	514	510	0	1018	32	0	
3	0	0	0	0	505	513	0	1018	32	0	
4	0	0	0	0	511	514	1	1019	32	0	
5	0	0	0	0	522	513	0	1019	32	0	
6	0	0	0	0	511	514	0	1018	31	0	
7	0	0	0	0	511	513	0	1018	31	0	
8	0	0	0	0	509	514	1	1019	31	0	
9	0	0	0	0	510	513	0	1018	32	0	
10	0	0	0	0	510	513	0	1018	32	0	
11	0	0	0	0	504	515	0	1018	33	0	
12	0	0	0	0	511	513	1	1018	33	0	
13	0	0	0	0	514	512	0	1018	32	0	
14	0	0	0	0	513	513	0	1018	32	0	
15	0	0	0	0	514	514	0	1018	32	0	
0	0	0	0	0	505	514	1	1019	31	0	
1	0	0	0	0	514	513	0	1019	32	0	
2	0	0	0	0	508	514	0	1018	32	0	
3	0	0	0	0	514	514	0	1018	32	0	
4	0	0	0	0	520	513	1	1018	32	0	
5	0	0	0	0	506	513	0	1018	32	0	
6	0	0	0	0	510	514	0	1019	31	0	
7	0	0	0	0	505	512	0	1018	32	0	
8	0	0	0	0	500	510	1	1018	31	0	
9	0	0	0	0	511	510	0	1019	31	0	
10	0	0	0	0	504	510	0	1018	31	0	
11	0	0	0	0	512	512	0	1018	31	0	
12	0	0	0	0	507	511	1	1018	30	0	
13	0	0	0	0	512	511	0	1018	31	0	
14	0	0	0	0	511	510	0	1018	31	0	
15	0	0	0	0	506	510	0	1018	31	0	
0	0	0	0	0	509	510	1	1019	32	0	
1	0	0	0	0	512	509	0	1018	32	0	
2	0	0	0	0	513	510	0	1018	32	0	
3	0	0	0	0	512	512	0	1018	32	0	
4	0	0	0	0	513	511	1	1019	31	0	
5	0	0	0	0	504	512	0	1018	32	0	
6	0	0	0	0	509	513	0	1018	32	0	
7	0	0	0	0	511	513	0	1018	32	0	
8	0	0	0	0	510	510	1	1018	33	0	
9	0	0	0	0	519	509	0	1018	33	0	
10	0	0	0	0	511	510	0	1018	33	0	
11	0	0	0	0	504	512	0	1018	32	0	
12	0	0	0	0	510	513	1	1019	32	0	
13	0	0	0	0	517	513	0	1018	32	0	
14	0	0	0	0	504	513	0	1018	32	0	
15	0	0	0	0	508	514	0	1018	32	0	
0	0	0	0	0	505	514	1	1019	32	0	
1	0	0	0	0	509	512	0	1018	32	0	
2	0	0	0	0	513	511	0	1018	32	0	
3	0	0	0	0	509	512	0	1018	32	0	
4	0	0	0	0	512	512	1	1018	32	0	
5	0	0	0	0	510	512	0	1018	32	0	
6	0	0	0	0	517	512	0	1019	32	0	
7	0	0	0	0	513	513	0	1018	32	0	
8	0	0	0	0	511	512	1	1019	32	0	
9	0	0	0	0	509	512	0	1019	30	0	
10	0	0	0	0	513	513	0	1018	30	0	
11	0	0	0	0	515	512	0	1018	28	0	
12	0	0	0	0	510	512	1	1019	28	0	
13	0	0	0	0	509	511	0	1018	29	0	
14	0	0	0	0	513	511	0	1018	29	0	
15	0	0	0	0	506	512	0	1018	30	0	
0	0	0	0	0	514	515	1	1019	31	0	
1	0	0	0	0	506	514	0	1019	31	0	
2	0	0	0	0	513	514	0	1018	32	0	
3	0	0	0	0	512	513	0	1018	31	0	
4	0	0	0	0	509	512	1	1018	31	0	
5	0	0	0	0	515	511	0	1018	31	0	
6	0	0	0	0	507	512	0	1018	31	0	
7	0	0	0	0	510	513	0	1018	32	0	
8	0	0	0	0	510	512	1	1019	33	0	
9	0	0	0	0	504	510	0	1019	33	0	
10	0	0	0	0	512	511	0	1018	34	0	
11	0	0	0	0	505	513	0	1018	33	0	
12	0	0	0	0	510	512	1	1018	33	0	
13	0	0	0	0	506	512	0	1019	32	0	
14	0	0	0	0	506	513	0	1018	31	0	
15	0	0	0	0	504	513	0	1018	32	0	
0	0	0	0	0	510	513	1	1018	32	0	
1	0	0	0	0	517	513	0	1018	32	0	
2	0	0	0	0	516	514	0	1018	33	0	
3	0	0	0	0	514	515	0	1018	33	0	
4	0	0	0	0	506	513	1	1018	34	0	
5	0	0	0	0	512	513	0	1019	33	0	
6	0	0	0	0	509	513	0	1018	33	0	
7	0	0	0	0	510	512	0	1018	32	0	
8	0	0	0	0	515	513	1	1019	31	0	
9	0	0	0	0	515	512	0	1018	32	0	
10	0	0	0	0	513	513	0	1018	32	0	
11	0	0	0	0	504	513	0	1018	32	0	
12	0	0	0	0	510	513	1	1019	33	0	
13	0	0	0	0	518	512	0	1018	33	0	
14	0	0	0	0	508	511	0	1018	33	0	
15	0	0	0	0	512	512	0	1018	32	0	
0	0	0	0	0	506	511	1	1018	31	0	
1	0	0	0	0	506	510	0	1019	30	0	
2	0	0	0	0	516	511	0	1018	28	0	
3	0	0	0	0	513	512	0	1018	27	0	
4	0	0	0	0	504	512	1	1019	28	0	
5	0	0	0	0	506	514	0	1018	29	0	
6	0	0	0	0	512	513	0	1018	31	0	
7	0	0	0	0	514	515	0	1018	33	0	
8	0	0	0	0	505	516	1	1019	33	0	
9	0	0	0	0	511	516	0	1019	33	0	
10	0	0	0	0	509	517	0	1018	32	0	
11	0	0	0	0	506	516	0	1018	30	0	
12	0	0	0	0	512	515	1	1019	30	0	
13	0	0	0	0	511	514	0	1018	31	0	
14	0	0	0	0	515	514	0	1018	32	0	
15	0	0	0	0	513	513	0	1018	33	0	
0	0	0	0	0	507	513	1	1018	33	0	
1	0	0	0	0	507	514	0	1018	32	0	
2	0	0	0	0	511	514	0	1018	30	0	
3	0	0	0	0	508	515	0	1018	29	0	
4	0	0	0	0	514	513	1	1018	29	0	
5	0	0	0	0	512	513	0	1018	29	0	
6	0	0	0	0	514	512	0	1018	30	0	
7	0	0	0	0	508	514	0	1018	31	0	
8	0	0	0	0	512	512	1	1018	32	0	
9	0	0	0	0	511	515	0	1018	32	0	
10	0	0	0	0	507	515	0	1018	32	0	
11	0	0	0	0	507	513	0	1018	31	0	
12	0	0	0	0	514	514	1	1019	32	0	
13	0	0	0	0	514	513	0	1018	32	0	
14	0	0	0	0	513	513	0	1018	32	0	
15	0	0	0	0	512	514	0	1018	32	0	
0	0	0	0	0	502	513	1	1019	33	0	
1	0	0	0	0	504	513	0	1018	33	0	
2	0	0	0	0	508	512	0	1018	33	0	
3	0	0	0	0	514	511	0	1018	33	0	
4	0	0	0	0	508	512	1	1019	34	0	
5	0	0	0	0	519	512	0	1018	33	0	
6	0	0	0	0	504	512	0	1018	32	0	
7	0	0	0	0	517	513	0	1018	32	0	
8	0	0	0	0	511	512	1	1019	30	0	
9	0	0	0	0	506	509	0	1018	30	0	
10	0	0	0	0	517	512	0	1018	30	0	
11	0	0	0	0	508	510	0	1018	30	0	
12	0	0	0	0	505	511	1	1019	31	0	
13	0	0	0	0	512	509	0	1019	32	0	
14	0	0	0	0	515	509	0	1018	32	0	
15	0	0	0	0	509	509	0	1018	32	0	
0	0	0	0	0	511	510	1	1019	32	0	
1	0	0	0	0	510	507	0	1018	32	0	
2	0	0	0	0	506	508	0	1018	31	0	
3	0	0	0	0	510	509	0	1018	31	0	
4	0	0	0	0	513	508	1	1018	31	0	
5	0	0	0	0	507	510	0	1018	32	0	
6	0	0	0	0	512	510	0	1018	32	0	
7	0	0	0	0	513	510	0	1018	33	0	
8	0	0	0	0	520	511	1	1018	33	0	
9	0	0	0	0	503	511	0	1018	33	0	
10	0	0	0	0	513	512	0	1018	32	0	
11	0	0	0	0	505	512	0	1018	32	0	
12	0	0	0	0	507	511	1	1019	31	0	
13	0	0	0	0	512	509	0	1018	31	0	
14	0	0	0	0	511	509	0	1018	31	0	
15	0	0	0	0	510	510	0	1018	31	0	
0	0	0	0	0	509	510	1	1018	32	0	
1	0	0	0	0	509	510	0	1018	32	0	
2	0	0	0	0	510	511	0	1018	32	0	
3	0	0	0	0	510	511	0	1018	32	0	
4	0	0	0	0	511	512	1	1019	32	0	
5	0	0	0	0	507	512	0	1018	32	0	
6	0	0	0	0	517	510	0	1018	31	0	
7	0	0	0	0	511	510	0	1018	31	0	
8	0	0	0	0	518	509	1	1019	30	0	
9	0	0	0	0	508	508	0	1018	31	0	
10	0	0	0	0	510	509	0	1018	31	0	
11	0	0	0	0	510	510	0	1018	32	0	
12	0	0	0	0	519	512	1	1019	33	0	
13	0	0	0	0	511	512	0	1018	33	0	
14	0	0	0	0	514	511	0	1018	32	0	
15	0	0	0	0	508	512	0	1018	32	0	
0	0	0	0	0	504	511	1	1019	31	0	
1	0	0	0	0	505	512	0	1018	31	0	
2	0	0	0	0	508	512	0	1018	31	0	
3	0	0	0	0	511	511	0	1018	31	0	
4	0	0	0	0	511	508	1	1019	32	0	
5	0	0	0	0	507	509	0	1018	32	0	
6	0	0	0	0	505	510	0	1018	32	0	
7	0	0	0	0	508	510	0	1018	32	0	
8	0	0	0	0	515	510	1	1018	32	0	
9	0	0	0	0	510	511	0	1018	32	0	
10	0	0	0	0	508	512	0	1018	32	0	
11	0	0	0	0	514	512	0	1018	31	0	
12	0	0	0	0	510	512	1	1019	31	0	
13	0	0	0	0	510	513	0	1018	31	0	
14	0	0	0	0	511	511	0	1018	31	0	
15	0	0	0	0	510	513	0	1018	31	0	
0	0	0	0	0	514	512	1	1019	31	0	
1	0	0	0	0	508	511	0	1018	32	0	
2	0	0	0	0	512	511	0	1018	32	0	
3	0	0	0	0	517	511	0	1018	32	0	
4	0	0	0	0	513	511	1	1019	32	0	
5	0	0	0	0	507	511	0	1018	31	0	
6	0	0	0	0	507	514	0	1018	31	0	
7	0	0	0	0	510	514	0	1018	31	0	
8	0	0	0	0	511	514	1	1019	31	0	
9	0	0	0	0	509	513	0	1019	32	0	
10	0	0	0	0	512	514	0	1018	32	0	
11	0	0	0	0	507	512	0	1018	32	0	
12	0	0	0	0	506	514	1	1019	32	0	
13	0	0	0	0	511	513	0	1018	32	0	
14	0	0	0	0	504	515	0	1018	31	0	
15	0	0	0	0	509	514	0	1018	32	0	
0	0	0	0	0	509	513	1	1019	32	0	
1	0	0	0	0	507	512	0	1018	32	0	
2	0	0	0	0	519	513	0	1018	32	0	
3	0	0	0	0	512	515	0	1018	32	0	
4	0	0	0	0	512	514	0	1018	31	0	
5	0	0	0	0	515	515	0	1018	32	0	
6	0	0	0	0	514	515	0	1018	32	0	
7	0	0	0	0	503	517	0	1018	32	0	
8	0	0	0	0	509	515	1	1019	32	0	
9	0	0	0	0	510	515	0	1018	32	0	
10	0	0	0	0	509	514	0	1018	32	0	
11	0	0	0	0	505	514	0	1018	32	0	
12	0	0	0	0	505	514	1	1019	32	0	
13	0	0	0	0	515	513	0	1018	31	0	
14	0	0	0	0	512	515	0	1018	31	0	
15	0	0	0	0	510	514	0	1018	32	0	
0	0	0	0	0	512	513	1	1018	32	0	
1	0	0	0	0	514	512	0	1018	32	0	
2	0	0	0	0	511	513	0	1018	32	0	
3	0	0	0	0	504	513	0	1018	32	0	
4	0	0	0	0	515	511	1	1019	32	0	
5	0	0	0	0	509	510	0	1018	30	0	
6	0	0	0	0	511	510	0	1018	29	0	
7	0	0	0	0	513	512	0	1018	28	0	
8	0	0	0	0	510	512	1	1018	27	0	
9	0	0	0	0	508	512	0	1018	27	0	
10	0	0	0	0	504	512	0	1018	27	0	
11	0	0	0	0	504	513	0	1018	28	0	
12	0	0	0	0	508	514	1	1018	29	0	
13	0	0	0	0	511	514	0	1018	30	0	
14	0	0	0	0	509	514	0	1018	30	0	
15	0	0	0	0	512	514	0	1018	30	0	
0	0	0	0	0	507	514	1	1018	29	0	
1	0	0	0	0	516	514	0	1018	29	0	
2	0	0	0	0	521	513	0	1018	29	0	
3	0	0	0	0	514	513	0	1018	30	0	
4	0	0	0	0	512	512	1	1019	32	0	
5	0	0	0	0	505	513	0	1018	33	0	
6	0	0	0	0	511	512	0	1018	33	0	
7	0	0	0	0	513	512	0	1018	33	0	
8	0	0	0	0	514	511	1	1018	32	0	
9	0	0	0	0	503	512	0	1018	31	0	
10	0	0	0	0	513	514	0	1018	31	0	
11	0	0	0	0	514	514	0	1018	31	0	
12	0	0	0	0	520	514	1	1019	32	0	
13	0	0	0	0	512	514	0	1018	32	0	
14	0	0	0	0	509	513	0	1018	31	0	
15	0	0	0	0	509	512	0	1018	31	0	
0	0	0	0	0	509	514	1	1019	31	0	
1	0	0	0	0	507	513	0	1018	32	0	
2	0	0	0	0	514	513	0	1018	32	0	
3	0	0	0	0	509	512	0	1018	33	0	
4	0	0	0	0	507	513	1	1019	32	0	
5	0	0	0	0	506	512	0	1018	31	0	
6	0	0	0	0	513	513	0	1018	31	0	
7	0	0	0	0	514	515	0	1018	31	0	
8	0	0	0	0	518	512	1	1019	31	0	
9	0	0	0	0	510	510	0	1018	32	0	
10	0	0	0	0	508	513	0	1018	32	0	
11	0	0	0	0	512	514	0	1018	33	0	
12	0	0	0	0	510	513	1	1019	33	0	
13	0	0	0	0	512	511	0	1018	32	0	
14	0	0	0	0	509	510	0	1018	31	0	
15	0	0	0	0	509	513	0	1018	31	0	
0	0	0	0	0	505	515	1	1019	31	0	
1	0	0	0	0	507	513	0	1018	32	0	
2	0	0	0	0	510	514	0	1018	32	0	
3	0	0	0	0	513	515	0	1018	31	0	
4	0	0	0	0	514	515	1	1018	31	0	
5	0	0	0	0	503	513	0	1018	31	0	
6	0	0	0	0	509	514	0	1018	31	0	
7	0	0	0	0	513	512	0	1018	31	0	
8	0	0	0	0	506	512	1	1019	32	0	
9	0	0	0	0	507	513	0	1018	32	0	
10	0	0	0	0	508	513	0	1018	32	0	
11	0	0	0	0	508	512	0	1018	31	0	
12	0	0	0	0	518	512	1	1019	31	0	
13	0	0	0	0	510	511	0	1018	31	0	
14	0	0	0	0	515	512	0	1018	31	0	
15	0	0	0	0	513	514	0	1018	32	0	
0	0	0	0	0	508	516	1	1019	31	0	
1	0	0	0	0	511	513	0	1018	31	0	
2	0	0	0	0	508	514	0	1018	31	0	
3	0	0	0	0	518	514	0	1018	31	0	
4	0	0	0	0	509	511	1	1019	31	0	
5	0	0	0	0	510	510	0	1018	31	0	
6	0	0	0	0	504	508	0	1018	31	0	
7	0	0	0	0	499	508	0	1018	31	0	
8	0	0	0	0	515	509	1	1019	31	0	
9	0	0	0	0	511	511	0	1018	31	0	
10	0	0	0	0	509	512	0	1018	31	0	
11	0	0	0	0	510	514	0	1018	31	0	
12	0	0	0	0	509	514	1	1018	31	0	
13	0	0	0	0	512	515	0	1018	32	0	
14	0	0	0	0	510	513	0	1018	32	0	
15	0	0	0	0	514	512	0	1018	32	0	
0	0	0	0	0	515	513	1	1019	31	0	
1	0	0	0	0	506	512	0	1018	31	0	
2	0	0	0	0	510	510	0	1018	31	0	
3	0	0	0	0	515	509	0	1018	31	0	
4	0	0	0	0	504	510	1	1019	32	0	
5	0	0	0	0	505	511	0	1018	32	0	
6	0	0	0	0	513	510	0	1018	31	0	
7	0	0	0	0	507	511	0	1018	32	0	
8	0	0	0	0	516	511	1	1019	31	0	
9	0	0	0	0	516	512	0	1018	31	0	
10	0	0	0	0	511	512	0	1018	31	0	
11	0	0	0	0	519	514	0	1018	31	0	
12	0	0	0	0	507	514	1	1019	32	0	
13	0	0	0	0	505	513	0	1018	31	0	
14	0	0	0	0	507	515	0	1018	31	0	
15	0	0	0	0	513	513	0	1018	31	0	
0	0	0	0	0	506	511	1	1019	31	0	
1	0	0	0	0	508	510	0	1018	31	0	
2	0	0	0	0	512	509	0	1018	32	0	
3	0	0	0	0	514	510	0	1018	32	0	
4	0	0	0	0	501	512	1	1019	31	0	
5	0	0	0	0	517	512	0	1018	31	0	
6	0	0	0	0	514	511	0	1018	31	0	
7	0	0	0	0	509	512	0	1018	31	0	
8	0	0	0	0	509	512	1	1018	31	0	
9	0	0	0	0	512	511	0	1018	31	0	
10	0	0	0	0	511	513	0	1018	32	0	
11	0	0	0	0	507	513	0	1018	32	0	
12	0	0	0	0	504	513	1	1019	31	0	
13	0	0	0	0	511	512	0	1018	31	0	
14	0	0	0	0	510	512	0	1018	31	0	
15	0	0	0	0	507	512	0	1018	31	0	
0	0	0	0	0	507	511	1	1019	31	0	
1	0	0	0	0	511	512	0	1018	31	0	
2	0	0	0	0	519	510	0	1018	32	0	
3	0	0	0	0	505	511	0	1018	31	0	
4	0	0	0	0	515	510	1	1019	32	0	
5	0	0	0	0	508	511	0	1018	31	0	
6	0	0	0	0	507	512	0	1018	31	0	
7	0	0	0	0	506	512	0	1018	32	0	
8	0	0	0	0	505	511	1	1019	31	0	
9	0	0	0	0	507	509	0	1018	32	0	
10	0	0	0	0	516	511	0	1018	32	0	
11	0	0	0	0	512	512	0	1018	31	0	
12	0	0	0	0	514	513	1	1019	31	0	
13	0	0	0	0	513	513	0	1018	31	0	
14	0	0	0	0	518	512	0	1018	31	0	
15	0	0	0	0	506	513	0	1018	32	0	
0	0	0	0	0	510	513	1	1018	32	0	
1	0	0	0	0	514	513	0	1018	31	0	
2	0	0	0	0	510	512	0	1018	32	0	
3	0	0	0	0	510	512	0	1018	31	0	
4	0	0	0	0	514	511	1	1019	32	0	
5	0	0	0	0	510	510	0	1018	32	0	
6	0	0	0	0	513	511	0	1018	31	0	
7	0	0	0	0	514	511	0	1018	31	0	
8	0	0	0	0	507	513	1	1019	31	0	
9	0	0	0	0	507	511	0	1018	31	0	
10	0	0	0	0	512	512	0	991	32	0	
11	0	0	0	0	507	512	0	1012	31	0	
12	0	0	0	0	513	512	1	1019	32	0	
13	0	0	0	0	513	514	0	1018	31	0	
14	0	0	0	0	506	513	0	1018	31	0	
15	0	0	0	0	506	514	0	1018	31	0	
0	0	0	0	0	514	513	1	1019	31	0	
1	0	0	0	0	505	512	0	1018	31	0	
2	0	0	0	0	507	513	0	1018	32	0	
3	0	0	0	0	510	513	0	1018	31	0	
4	0	0	0	0	512	513	1	1019	31	0	
5	0	0	0	0	510	512	0	978	31	0	
6	0	0	0	0	505	512	0	955	31	0	
7	0	0	0	0	512	513	0	937	31	0	
8	0	0	0	0	510	512	1	922	31	0	
9	0	0	0	0	510	514	0	910	31	0	
10	0	0	0	0	509	512	0	888	32	0	
11	0	0	0	0	512	513	0	849	31	0	
12	0	0	0	0	504	515	1	803	32	0	
13	0	0	0	0	509	512	0	758	31	0	
14	0	0	0	0	519	513	0	735	31	0	
15	0	0	0	0	512	513	0	720	31	0	
0	0	0	0	0	504	512	1	733	31	0	
1	0	0	0	0	504	511	0	777	31	0	
2	0	0	0	0	509	512	0	857	31	0	
3	0	0	0	0	514	514	0	947	31	0	
4	0	0	0	0	514	516	1	1018	31	0	
5	0	0	0	0	509	514	0	1018	31	0	
6	0	0	0	0	506	513	0	1018	31	0	
7	0	0	0	0	515	513	0	1018	31	0	
8	0	0	0	0	513	512	1	1018	31	0	
9	0	0	0	0	511	511	0	1018	31	0	
10	0	0	0	0	509	510	0	1018	31	0	
11	0	0	0	0	513	511	0	1018	31	0	
12	0	0	0	0	508	510	1	1019	31	0	
13	0	0	0	0	509	511	0	1018	31	0	
14	0	0	0	0	515	512	0	1018	31	0	
15	0	0	0	0	520	511	0	1018	31	0	
0	0	0	0	0	508	509	1	1018	31	0	
1	0	0	0	0	509	510	0	1018	31	0	
2	0	0	0	0	504	511	0	1018	31	0	
3	0	0	0	0	508	512	0	1018	31	0	
4	0	0	0	0	505	515	1	1018	31	0	
5	0	0	0	0	508	515	0	1018	31	0	
6	0	0	0	0	511	515	0	1018	31	0	
7	0	0	0	0	514	515	0	1018	31	0	
8	0	0	0	0	511	516	1	1019	31	0	
9	0	0	0	0	517	517	0	1018	31	0	
10	0	0	0	0	505	515	0	1018	31	0	
11	0	0	0	0	510	519	0	1018	31	0	
12	0	0	0	0	512	518	1	1019	31	0	
13	0	0	0	0	509	516	0	1018	31	0	
14	0	0	0	0	505	518	0	1018	31	0	
15	0	0	0	0	512	519	0	1018	31	0	
0	0	0	0	0	507	515	1	1018	31	0	
1	0	0	0	0	511	515	0	1019	31	0	
2	0	0	0	0	505	516	0	1018	31	0	
3	0	0	0	0	513	516	0	1018	31	0	
4	0	0	0	0	508	512	1	1018	31	0	
5	0	0	0	0	518	511	0	1018	31	0	
6	0	0	0	0	507	512	0	1018	31	0	
7	0	0	0	0	508	513	0	1018	31	0	
8	0	0	0	0	515	513	1	1019	31	0	
9	0	0	0	0	517	511	0	1018	31	0	
10	0	0	0	0	511	512	0	1018	31	0	
11	0	0	0	0	511	513	0	1018	31	0	
12	0	0	0	0	515	513	1	1019	31	0	
13	0	0	0	0	511	511	0	1018	31	0	
14	0	0	0	0	511	509	0	1018	31	0	
15	0	0	0	0	512	509	0	1018	31	0	
0	0	0	0	0	512	507	1	1019	31	0	
1	0	0	0	0	508	509	0	1019	31	0	
2	0	0	0	0	513	511	0	1018	32	0	
3	0	0	0	0	505	511	0	1018	31	0	
4	0	0	0	0	509	511	1	1019	31	0	
5	0	0	0	0	511	509	0	1018	31	0	
6	0	0	0	0	510	509	0	1018	31	0	
7	0	0	0	0	508	510	0	1018	31	0	
8	0	0	0	0	514	512	1	1019	31	0	
9	0	0	0	0	505	509	0	1019	31	0	
10	0	0	0	0	508	507	0	1018	31	0	
11	0	0	0	0	508	512	0	1018	31	0	
12	0	0	0	0	509	513	1	1018	31	0	
13	0	0	0	0	515	511	0	1018	31	0	
14	0	0	0	0	510	512	0	1018	31	0	
15	0	0	0	0	505	513	0	1018	31	0	
0	0	0	0	0	515	513	1	1019	31	0	
1	0	0	0	0	518	512	0	1018	31	0	
2	0	0	0	0	511	513	0	1018	31	0	
3	0	0	0	0	509	513	0	1018	31	0	
4	0	0	0	0	513	513	1	1018	32	0	
5	0	0	0	0	512	512	0	1019	32	0	
6	0	0	0	0	507	512	0	1018	31	0	
7	0	0	0	0	511	512	0	1018	32	0	
8	0	0	0	0	509	512	1	1018	31	0	
9	0	0	0	0	508	512	0	1019	31	0	
10	0	0	0	0	506	512	0	1019	31	0	
11	0	0	0	0	507	513	0	1018	31	0	
12	0	0	0	0	508	511	1	1019	31	0	
13	0	0	0	0	510	511	0	1019	31	0	
14	0	0	0	0	516	511	0	1019	31	0	
15	0	0	0	0	512	513	0	1018	31	0	
0	0	0	0	0	510	513	1	1019	31	0	
1	0	0	0	0	510	510	0	1019	32	0	
2	0	0	0	0	511	510	0	1018	32	0	
3	0	0	0	0	510	512	0	1018	32	0	
4	0	0	0	0	510	511	1	1018	32	0	
5	0	0	0	0	511	512	0	1018	31	0	
6	0	0	0	0	515	512	0	1018	31	0	
7	0	0	0	0	511	514	0	1018	31	0	
8	0	0	0	0	515	515	1	1019	30	0	
9	0	0	0	0	513	513	0	1019	31	0	
10	0	0	0	0	507	512	0	1018	32	0	
11	0	0	0	0	515	512	0	1018	32	0	
12	0	0	0	0	505	512	1	1019	32	0	
13	0	0	0	0	510	512	0	1018	32	0	
14	0	0	0	0	505	513	0	1019	31	0	
15	0	0	0	0	507	512	0	1018	31	0	
0	0	0	0	0	515	511	1	1018	31	0	
1	0	0	0	0	509	512	0	1018	31	0	
2	0	0	0	0	511	512	0	1018	31	0	
3	0	0	0	0	514	511	0	1018	31	0	
4	0	0	0	0	510	511	1	1019	32	0	
5	0	0	0	0	503	509	0	1019	32	0	
6	0	0	0	0	512	508	0	1019	32	0	
7	0	0	0	0	510	510	0	1018	32	0	
8	0	0	0	0	513	511	1	1019	32	0	
9	0	0	0	0	501	509	0	1018	32	0	
10	0	0	0	0	512	509	0	1019	32	0	
11	0	0	0	0	508	509	0	1018	32	0	
12	0	0	0	0	514	511	1	1019	31	0	
13	0	0	0	0	507	510	0	1019	31	0	
14	0	0	0	0	512	510	0	1018	31	0	
15	0	0	0	0	511	509	0	1018	32	0	
0	0	0	0	0	509	510	1	1019	32	0	
1	0	0	0	0	508	508	0	1019	33	0	
2	0	0	0	0	510	509	0	1018	33	0	
3	0	0	0	0	512	510	0	1018	33	0	
4	0	0	0	0	515	511	1	1018	33	0	
5	0	0	0	0	506	511	0	1018	33	0	
6	0	0	0	0	512	512	0	1018	33	0	
7	0	0	0	0	516	511	0	1018	33	0	
8	0	0	0	0	505	513	1	1019	32	0	
9	0	0	0	0	510	513	0	1019	33	0	
10	0	0	0	0	505	511	0	1018	33	0	
11	0	0	0	0	507	513	0	1018	33	0	
12	0	0	0	0	505	513	1	1018	33	0	
13	0	0	0	0	513	513	0	1018	33	0	
14	0	0	0	0	517	513	0	1018	33	0	
15	0	0	0	0	510	513	0	1018	34	0	
0	0	0	0	0	512	515	1	1019	33	0	
1	0	0	0	0	515	513	0	1019	33	0	
2	0	0	0	0	502	514	0	1019	33	0	
3	0	0	0	0	507	512	0	1018	33	0	
4	0	0	0	0	513	513	1	1019	33	0	
5	0	0	0	0	513	513	0	1018	33	0	
6	0	0	0	0	508	515	0	1018	33	0	
7	0	0	0	0	515	515	0	1018	33	0	
8	0	0	0	0	509	515	1	1019	33	0	
9	0	0	0	0	513	513	0	1018	33	0	
10	0	0	0	0	515	511	0	1018	33	0	
11	0	0	0	0	511	514	0	1018	33	0	
12	0	0	0	0	507	513	1	1018	33	0	
13	0	0	0	0	502	515	0	1018	32	0	
14	0	0	0	0	511	514	0	1018	32	0	
15	0	0	0	0	507	514	0	1018	32	0	
0	0	0	0	0	508	512	1	1019	31	0	
1	0	0	0	0	515	509	0	1018	31	0	
2	0	0	0	0	511	512	0	1019	31	0	
3	0	0	0	0	512	511	0	1018	30	0	
4	0	0	0	0	511	510	1	1019	30	0	
5	0	0	0	0	509	509	0	1019	29	0	
6	0	0	0	0	509	510	0	1018	29	0	
7	0	0	0	0	514	512	0	1018	31	0	
8	0	0	0	0	507	512	1	1018	32	0	
9	0	0	0	0	512	512	0	1018	32	0	
10	0	0	0	0	514	512	0	1018	32	0	
11	0	0	0	0	508	512	0	1018	32	0	
12	0	0	0	0	508	511	1	1019	31	0	
13	0	0	0	0	506	512	0	1018	31	0	
14	0	0	0	0	510	513	0	1018	31	0	
15	0	0	0	0	507	514	0	1018	32	0	
0	0	0	0	0	508	515	1	1019	32	0	
1	0	0	0	0	511	513	0	1019	32	0	
2	0	0	0	0	509	515	0	1018	32	0	
3	0	0	0	0	515	515	0	1018	32	0	
4	0	0	0	0	509	513	1	1018	31	0	
5	0	0	0	0	507	513	0	1018	30	0	
6	0	0	0	0	511	514	0	1018	31	0	
7	0	0	0	0	510	515	0	1018	32	0	
8	0	0	0	0	508	515	1	1019	32	0	
9	0	0	0	0	510	514	0	1018	30	0	
10	0	0	0	0	505	516	0	1018	28	0	
11	0	0	0	0	510	515	0	1018	28	0	
12	0	0	0	0	507	514	1	1019	27	0	
13	0	0	0	0	512	514	0	1018	26	0	
14	0	0	0	0	508	513	0	1018	25	0	
15	0	0	0	0	510	515	0	1018	25	0	
0	0	0	0	0	509	514	1	1018	25	0	
1	0	0	0	0	511	514	0	1018	26	0	
2	0	0	0	0	508	512	0	1018	28	0	
3	0	0	0	0	510	514	0	1018	29	0	
4	0	0	0	0	506	511	1	1019	29	0	
5	0	0	0	0	509	512	0	1018	29	0	
6	0	0	0	0	516	512	0	1018	30	0	
7	0	0	0	0	509	512	0	1018	32	0	
8	0	0	0	0	511	511	1	1019	30	0	
9	0	0	0	0	511	508	0	1018	29	0	
10	0	0	0	0	517	511	0	1018	29	0	
11	0	0	0	0	511	513	0	1018	31	0	
12	0	0	0	0	505	513	1	1018	32	0	
13	0	0	0	0	506	513	0	1018	32	0	
14	0	0	0	0	508	512	0	1018	32	0	
15	0	0	0	0	508	513	0	1018	33	0	
0	0	0	0	0	515	513	1	1019	34	0	
1	0	0	0	0	508	513	0	1018	35	0	
2	0	0	0	0	519	513	0	1018	35	0	
3	0	0	0	0	508	511	0	1018	33	0	
4	0	0	0	0	516	511	1	1019	31	0	
5	0	0	0	0	507	511	0	1018	29	0	
6	0	0	0	0	508	512	0	1018	30	0	
7	0	0	0	0	503	512	0	1018	30	0	
8	0	0	0	0	506	513	1	1019	30	0	
9	0	0	0	0	504	512	0	1018	31	0	
10	0	0	0	0	513	511	0	945	33	0	
11	0	0	0	0	518	512	0	920	33	0	
12	0	0	0	0	511	511	1	907	32	0	
13	0	0	0	0	512	510	0	901	31	0	
14	0	0	0	0	514	511	0	871	30	0	
15	0	0	0	0	509	511	0	835	31	0	
0	0	0	0	0	506	512	1	790	31	0	
1	0	0	0	0	510	511	0	758	31	0	
2	0	0	0	0	512	511	0	754	31	0	
3	0	0	0	0	511	512	0	745	31	0	
4	0	0	0	0	511	512	1	713	32	0	
5	0	0	0	0	515	513	0	655	32	0	
6	0	0	0	0	514	512	0	574	32	0	
7	0	0	0	0	508	512	0	493	32	0	
8	0	0	0	0	507	512	1	423	31	0	
9	0	0	0	0	511	512	0	385	31	0	
10	0	0	0	0	511	511	0	370	32	0	
11	0	0	0	0	505	512	0	353	31	0	
12	0	0	0	0	514	511	0	329	30	0	
13	0	0	0	0	510	509	0	305	31	0	
14	0	0	0	0	504	510	0	285	32	0	
15	0	0	0	0	514	509	0	268	32	0	
0	0	0	0	0	504	509	1	237	31	0	
1	0	0	0	0	511	509	0	212	31	0	
2	0	0	0	0	513	510	0	193	32	0	
3	0	0	0	0	514	512	0	180	32	0	
4	0	0	0	0	508	512	1	173	32	0	
5	0	0	0	0	514	511	0	163	31	0	
6	0	0	0	0	513	511	0	133	31	0	
7	0	0	0	0	506	510	0	96	31	0	
8	0	0	0	0	507	509	1	51	31	0	
9	0	0	0	0	510	508	0	0	31	0	
10	0	0	0	0	513	509	0	0	32	0	
11	0	0	0	0	513	512	0	0	32	0	
12	0	0	0	0	503	512	1	0	32	0	
13	0	0	0	0	511	509	0	0	32	0	
14	0	0	0	0	513	509	0	0	31	0	
15	0	0	0	0	510	511	0	0	31	0	
0	0	0	0	0	517	511	0	0	30	0	
1	0	0	0	0	503	509	0	0	31	0	
2	0	0	0	0	504	511	0	0	32	0	
3	0	0	0	0	510	511	0	0	31	0	
4	0	0	0	0	513	511	0	0	31	0	
5	0	0	0	0	511	511	0	0	31	0	
6	0	0	0	0	513	510	0	0	31	0	
7	0	0	0	0	515	510	0	0	31	0	
8	0	0	0	0	513	511	0	0	31	0	
9	0	0	0	0	508	511	0	0	31	0	
10	0	0	0	0	514	514	0	0	31	0	
11	0	0	0	0	509	516	0	0	31	0	
12	0	0	0	0	513	515	0	0	31	0	
13	0	0	0	0	507	516	0	0	31	0	
14	0	0	0	0	507	513	0	0	30	0	
15	0	0	0	0	513	513	0	0	30	0	
0	0	0	0	0	516	512	0	0	31	0	
1	0	0	0	0	504	511	0	0	31	0	
2	0	0	0	0	508	512	0	0	31	0	
3	0	0	0	0	510	515	0	0	30	0	
4	0	0	0	0	516	513	0	0	30	0	
5	0	0	0	0	498	512	0	0	31	0	
6	0	0	0	0	513	513	0	0	31	0	
7	0	0	0	0	515	514	0	0	31	0	
8	0	0	0	0	504	513	1	0	30	0	
9	0	0	0	0	506	512	0	0	31	0	
10	0	0	0	0	512	513	0	0	31	0	
11	0	0	0	0	511	513	0	0	31	0	
12	0	0	0	0	519	513	0	0	31	0	
13	0	0	0	0	513	515	0	0	31	0	
14	0	0	0	0	510	515	0	0	30	0	
15	0	0	0	0	509	515	0	0	30	0	
0	0	0	0	0	510	516	1	0	30	0	
1	0	0	0	0	507	515	0	0	30	0	
2	0	0	0	0	516	517	0	0	30	0	
3	0	0	0	0	506	516	0	0	30	0	
4	0	0	0	0	509	515	1	0	31	0	
5	0	0	0	0	503	513	0	0	31	0	
6	0	0	0	0	511	513	0	0	30	0	
7	0	0	0	0	509	513	0	0	30	0	
8	0	0	0	0	508	513	1	0	30	0	
9	0	0	0	0	509	511	0	0	31	0	
10	0	0	0	0	510	513	0	0	31	0	
11	0	0	0	0	510	514	0	0	30	0	
12	0	0	0	0	513	512	0	0	30	0	
13	0	0	0	0	516	511	0	0	30	0	
14	0	0	0	0	512	511	0	0	30	0	
15	0	0	0	0	508	512	0	0	31	0	
0	0	0	0	0	504	514	1	0	30	0	
1	0	0	0	0	507	511	0	0	31	0	
2	0	0	0	0	514	512	0	0	32	0	
3	0	0	0	0	508	513	0	0	31	0	
4	0	0	0	0	503	511	1	0	32	0	
5	0	0	0	0	510	509	0	0	32	0	
6	0	0	0	0	511	511	0	0	31	0	
7	0	0	0	0	512	512	0	0	32	0	
8	0	0	0	0	509	512	1	0	32	0	
9	0	0	0	0	514	510	0	0	32	0	
10	0	0	0	0	518	511	0	0	33	0	
11	0	0	0	0	508	509	0	0	32	0	
12	0	0	0	0	502	508	0	0	33	0	
13	0	0	0	0	508	508	0	0	33	0	
14	0	0	0	0	503	510	0	0	33	0	
15	0	0	0	0	512	511	0	0	33	0	
0	0	0	0	0	515	511	0	0	33	0	
1	0	0	0	0	511	510	0	0	33	0	
2	0	0	0	0	517	512	0	0	33	0	
3	0	0	0	0	518	514	0	0	33	0	
4	0	0	0	0	506	514	0	0	33	0	
5	0	0	0	0	511	511	0	0	33	0	
6	0	0	0	0	506	510	0	0	33	0	
7	0	0	0	0	507	510	0	0	33	0	
8	0	0	0	0	511	508	0	0	33	0	
9	0	0	0	0	508	508	0	0	33	0	
10	0	0	0	0	507	511	0	0	33	0	
11	0	0	0	0	512	512	0	0	33	0	
12	0	0	0	0	516	513	1	0	34	0	
13	0	0	0	0	508	515	0	0	33	0	
14	0	0	0	0	506	515	0	0	33	0	
15	0	0	0	0	507	515	0	0	33	0	
0	0	0	0	0	511	513	1	0	33	0	
1	0	0	0	0	507	512	0	0	33	0	
2	0	0	0	0	511	512	0	0	34	0	
3	0	0	0	0	508	512	0	0	33	0	
4	0	0	0	0	511	510	0	0	33	0	
5	0	0	0	0	507	509	0	0	33	0	
6	0	0	0	0	512	510	0	0	33	0	
7	0	0	0	0	504	510	0	0	33	0	
8	0	0	0	0	505	511	0	0	33	0	
9	0	0	0	0	506	512	0	0	33	0	
10	0	0	0	0	507	513	0	0	33	0	
11	0	0	0	0	514	513	0	0	33	0	
12	0	0	0	0	512	511	0	0	33	0	
13	0	0	0	0	513	511	0	0	33	0	
14	0	0	0	0	514	513	0	0	32	0	
15	0	0	0	0	513	511	0	0	32	0	
0	0	0	0	0	512	513	1	0	32	0	
1	0	0	0	0	518	509	0	0	32	0	
2	0	0	0	0	504	509	0	0	32	0	
3	0	0	0	0	505	510	0	0	32	0	
4	0	0	0	0	505	510	1	0	32	0	
5	0	0	0	0	507	511	0	0	32	0	
6	0	0	0	0	510	513	0	0	31	0	
7	0	0	0	0	508	515	0	0	32	0	
8	0	0	0	0	516	514	1	0	31	0	
9	0	0	0	0	507	512	0	0	31	0	
10	0	0	0	0	508	513	0	0	32	0	
11	0	0	0	0	506	512	0	0	31	0	
12	0	0	0	0	507	514	0	0	31	0	
13	0	0	0	0	513	513	0	0	31	0	
14	0	0	0	0	513	513	0	0	31	0	
15	0	0	0	0	505	515	0	0	31	0	
0	0	0	0	0	512	514	0	0	31	0	
1	0	0	0	0	512	515	0	0	31	0	
2	0	0	0	0	512	515	0	0	31	0	
3	0	0	0	0	514	515	0	0	31	0	
4	0	0	0	0	511	516	0	0	31	0	
5	0	0	0	0	503	515	0	0	31	0	
6	0	0	0	0	508	514	0	0	30	0	
7	0	0	0	0	507	513	0	0	30	0	
8	0	0	0	0	510	512	0	0	30	0	
9	0	0	0	0	509	513	0	0	30	0	
10	0	0	0	0	513	513	0	0	30	0	
11	0	0	0	0	506	514	0	0	30	0	
12	0	0	0	0	516	514	1	0	30	0	
13	0	0	0	0	512	514	0	0	30	0	
14	0	0	0	0	512	512	0	0	29	0	
15	0	0	0	0	503	512	0	0	30	0	
0	0	0	0	0	513	513	0	0	30	0	
1	0	0	0	0	514	512	0	0	30	0	
2	0	0	0	0	514	512	0	0	30	0	
3	0	0	0	0	509	511	0	0	30	0	
4	0	0	0	0	506	511	0	0	30	0	
5	0	0	0	0	508	511	0	0	30	0	
6	0	0	0	0	507	511	0	0	29	0	
7	0	0	0	0	508	512	0	0	29	0	
8	0	0	0	0	518	512	1	0	29	0	
9	0	0	0	0	511	512	0	0	30	0	
10	0	0	0	0	507	513	0	0	30	0	
11	0	0	0	0	513	513	0	0	30	0	
12	0	0	0	0	508	512	0	0	30	0	
13	0	0	0	0	518	511	0	0	30	0	
14	0	0	0	0	515	511	0	0	30	0	
15	0	0	0	0	504	512	0	0	30	0	
0	0	0	0	0	510	510	0	0	30	0	
1	0	0	0	0	504	509	0	0	30	0	
2	0	0	0	0	510	510	0	0	30	0	
3	0	0	0	0	509	510	0	0	30	0	
4	0	0	0	0	508	512	1	0	31	0	
5	0	0	0	0	513	511	0	0	30	0	
6	0	0	0	0	509	511	0	0	30	0	
7	0	0	0	0	515	511	0	0	31	0	
8	0	0	0	0	510	510	0	0	31	0	
9	0	0	0	0	518	511	0	0	31	0	
10	0	0	0	0	514	512	0	0	31	0	
11	0	0	0	0	511	511	0	0	31	0	
12	0	0	0	0	506	509	0	0	31	0	
13	0	0	0	0	504	510	0	0	31	0	
14	0	0	0	0	508	512	0	0	31	0	
15	0	0	0	0	512	512	0	0	31	0	
0	0	0	0	0	512	510	0	0	31	0	
1	0	0	0	0	513	510	0	0	31	0	
2	0	0	0	0	512	510	0	0	32	0	
3	0	0	0	0	510	512	0	0	32	0	
4	0	0	0	0	515	513	1	0	32	0	
5	0	0	0	0	508	511	0	0	32	0	
6	0	0	0	0	505	511	0	0	32	0	
7	0	0	0	0	511	513	0	0	32	0	
8	0	0	0	0	510	513	0	0	32	0	
9	0	0	0	0	514	514	0	0	32	0	
10	0	0	0	0	508	515	0	0	32	0	
11	0	0	0	0	515	513	0	0	32	0	
12	0	0	0	0	512	512	1	0	32	0	
13	0	0	0	0	508	511	0	0	32	0	
14	0	0	0	0	509	512	0	0	32	0	
15	0	0	0	0	510	514	0	0	32	0	
0	0	0	0	0	508	514	0	0	32	0	
1	0	0	0	0	504	514	0	0	32	0	
2	0	0	0	0	505	515	0	0	33	0	
3	0	0	0	0	511	516	0	0	32	0	
4	0	0	0	0	508	516	1	0	33	0	
5	0	0	0	0	516	515	0	0	32	0	
6	0	0	0	0	515	515	0	0	32	0	
7	0	0	0	0	508	516	0	0	32	0	
8	0	0	0	0	512	514	0	0	32	0	
9	0	0	0	0	507	514	0	0	32	0	
10	0	0	0	0	512	514	0	0	33	0	
11	0	0	0	0	511	512	0	0	32	0	
12	0	0	0	0	511	511	1	0	33	0	
13	0	0	0	0	507	509	0	0	32	0	
14	0	0	0	0	511	511	0	0	32	0	
15	0	0	0	0	511	511	0	0	32	0	
0	0	0	0	0	510	510	0	0	32	0	
1	0	0	0	0	508	511	0	0	32	0	
2	0	0	0	0	510	511	0	0	32	0	
3	0	0	0	0	512	511	0	0	32	0	
4	0	0	0	0	509	510	0	0	32	0	
5	0	0	0	0	513	511	0	0	32	0	
6	0	0	0	0	507	511	0	0	32	0	
7	0	0	0	0	511	511	0	0	32	0	
8	0	0	0	0	513	511	0	0	32	0	
9	0	0	0	0	512	511	0	0	32	0	
10	0	0	0	0	518	513	0	0	32	0	
11	0	0	0	0	508	513	0	0	32	0	
12	0	0	0	0	508	513	0	0	31	0	
13	0	0	0	0	504	515	0	0	31	0	
14	0	0	0	0	505	513	0	0	31	0	
15	0	0	0	0	508	515	0	0	31	0	
0	0	0	0	0	507	513	0	0	31	0	
1	0	0	0	0	510	512	0	0	31	0	
2	0	0	0	0	511	512	0	0	31	0	
3	0	0	0	0	514	512	0	0	31	0	
4	0	0	0	0	512	511	0	0	31	0	
5	0	0	0	0	513	511	0	0	31	0	
6	0	0	0	0	510	512	0	0	31	0	
7	0	0	0	0	505	511	0	0	31	0	
8	0	0	0	0	508	512	1	0	31	0	
9	0	0	0	0	514	513	0	0	31	0	
10	0	0	0	0	516	512	0	0	31	0	
11	0	0	0	0	509	513	0	0	31	0	
12	0	0	0	0	508	512	0	0	31	0	
13	0	0	0	0	505	512	0	0	31	0	
14	0	0	0	0	512	513	0	0	31	0	
15	0	0	0	0	510	513	0	0	31	0	
0	0	0	0	0	511	512	0	0	31	0	
1	0	0	0	0	508	512	0	0	31	0	
2	0	0	0	0	505	513	0	0	31	0	
3	0	0	0	0	515	512	0	0	31	0	
4	0	0	0	0	505	510	0	0	31	0	
5	0	0	0	0	506	512	0	0	31	0	
6	0	0	0	0	513	512	0	0	31	0	
7	0	0	0	0	512	513	0	0	31	0	
8	0	0	0	0	510	513	0	0	31	0	
9	0	0	0	0	511	512	0	0	31	0	
10	0	0	0	0	513	513	0	0	32	0	
11	0	0	0	0	508	513	0	0	31	0	
12	0	0	0	0	516	515	1	0	32	0	
13	0	0	0	0	515	514	0	0	33	0	
14	0	0	0	0	508	513	0	0	34	0	
15	0	0	0	0	515	511	0	0	34	0	
0	0	0	0	0	513	510	0	0	35	0	
1	0	0	0	0	512	511	0	0	34	0	
2	0	0	0	0	507	511	0	0	33	0	
3	0	0	0	0	507	512	0	0	32	0	
4	0	0	0	0	511	510	0	0	32	0	
5	0	0	0	0	505	511	0	0	32	0	
6	0	0	0	0	507	511	0	0	32	0	
7	0	0	0	0	509	511	0	0	32	0	
8	0	0	0	0	510	509	0	0	32	0	
9	0	0	0	0	509	510	0	0	32	0	
10	0	0	0	0	508	510	0	0	32	0	
11	0	0	0	0	516	511	0	0	31	0	
12	0	0	0	0	510	511	0	0	31	0	
13	0	0	0	0	510	511	0	0	32	0	
14	0	0	0	0	512	512	0	0	32	0	
15	0	0	0	0	511	514	0	0	32	0	
0	0	0	0	0	508	514	0	0	32	0	
1	0	0	0	0	510	513	0	0	32	0	
2	0	0	0	0	514	514	0	0	32	0	
3	0	0	0	0	504	515	0	0	32	0	
4	0	0	0	0	507	518	1	0	32	0	
5	0	0	0	0	512	516	0	0	32	0	
6	0	0	0	0	513	514	0	0	32	0	
7	0	0	0	0	511	512	0	0	33	0	
8	0	0	0	0	503	513	1	0	32	0	
9	0	0	0	0	511	511	0	0	33	0	
10	0	0	0	0	511	510	0	0	33	0	
11	0	0	0	0	510	510	0	0	33	0	
12	0	0	0	0	513	508	0	0	33	0	
13	0	0	0	0	509	509	0	0	33	0	
14	0	0	0	0	505	510	0	0	33	0	
15	0	0	0	0	510	513	0	0	32	0	
0	0	0	0	0	510	513	1	0	32	0	
1	0	0	0	0	515	510	0	0	33	0	
2	0	0	0	0	503	511	0	0	33	0	
3	0	0	0	0	509	510	0	0	33	0	
4	0	0	0	0	511	509	0	0	33	0	
5	0	0	0	0	506	509	0	0	33	0	
6	0	0	0	0	515	508	0	0	33	0	
7	0	0	0	0	511	510	0	0	33	0	
8	0	0	0	0	508	511	1	0	32	0	
9	0	0	0	0	507	509	0	0	32	0	
10	0	0	0	0	505	510	0	0	32	0	
11	0	0	0	0	518	512	0	0	32	0	
12	0	0	0	0	514	512	1	0	32	0	
13	0	0	0	0	508	513	0	0	32	0	
14	0	0	0	0	511	512	0	0	32	0	
15	0	0	0	0	509	513	0	0	32	0	
0	0	0	0	0	506	513	1	0	32	0	
1	0	0	0	0	507	511	0	0	32	0	
2	0	0	0	0	516	513	0	0	32	0	
3	0	0	0	0	508	512	0	0	32	0	
4	0	0	0	0	507	511	0	0	32	0	
5	0	0	0	0	507	512	0	0	32	0	
6	0	0	0	0	510	512	0	0	32	0	
7	0	0	0	0	508	513	0	0	32	0	
8	0	0	0	0	521	514	1	0	32	0	
9	0	0	0	0	508	512	0	0	32	0	
10	0	0	0	0	505	513	0	0	32	0	
11	0	0	0	0	505	514	0	28	32	0	
12	0	0	0	0	503	513	0	44	32	0	
13	0	0	0	0	516	511	0	55	31	0	
14	0	0	0	0	515	510	0	57	31	0	
15	0	0	0	0	511	511	0	64	31	0	
0	0	0	0	0	509	511	0	66	32	0	
1	0	0	0	0	505	512	0	72	32	0	
2	0	0	0	0	509	509	0	84	32	0	
3	0	0	0	0	513	509	0	91	32	0	
4	0	0	0	0	513	510	0	94	32	0	
5	0	0	0	0	511	508	0	108	32	0	
6	0	0	0	0	508	510	0	146	31	0	
7	0	0	0	0	508	511	0	202	31	0	
8	0	0	0	0	515	514	1	240	31	0	
9	0	0	0	0	513	512	0	270	31	0	
10	0	0	0	0	512	513	0	286	31	0	
11	0	0	0	0	505	514	0	287	31	0	
12	0	0	0	0	507	511	0	285	31	0	
13	0	0	0	0	512	513	0	288	31	0	
14	0	0	0	0	511	511	0	308	31	0	
15	0	0	0	0	510	511	0	345	31	0	
0	0	0	0	0	504	511	0	380	31	0	
1	0	0	0	0	511	510	0	396	31	0	
2	0	0	0	0	508	511	0	392	31	0	
3	0	0	0	0	514	513	0	391	31	0	
4	0	0	0	0	507	511	1	382	32	0	
5	0	0	0	0	507	511	0	363	31	0	
6	0	0	0	0	511	511	0	351	31	0	
7	0	0	0	0	510	513	0	354	31	0	
8	0	0	0	0	512	511	0	358	31	0	
9	0	0	0	0	509	510	0	368	31	0	
10	0	0	0	0	506	512	0	381	31	0	
11	0	0	0	0	511	512	0	389	31	0	
12	0	0	0	0	513	510	1	387	31	0	
13	0	0	0	0	509	510	0	397	31	0	
14	0	0	0	0	508	512	0	408	31	0	
15	0	0	0	0	513	513	0	421	31	0	
0	0	0	0	0	519	513	0	446	31	0	
1	0	0	0	0	508	512	0	477	31	0	
2	0	0	0	0	509	512	0	506	32	0	
3	0	0	0	0	515	513	0	532	31	0	
4	0	0	0	0	503	513	0	553	31	0	
5	0	0	0	0	510	512	0	550	31	0	
6	0	0	0	0	509	511	0	530	31	0	
7	0	0	0	0	506	512	0	508	31	0	
8	0	0	0	0	511	511	1	473	31	0	
9	0	0	0	0	509	511	0	437	31	0	
10	0	0	0	0	515	511	0	417	31	0	
11	0	0	0	0	516	513	0	435	31	0	
12	0	0	0	0	511	515	1	469	32	0	
13	0	0	0	0	505	514	0	513	31	0	
14	0	0	0	0	509	515	0	529	31	0	
15	0	0	0	0	504	514	0	538	31	0	
0	0	0	0	0	512	514	0	536	31	0	
1	0	0	0	0	506	513	0	534	31	0	
2	0	0	0	0	511	513	0	553	32	0	
3	0	0	0	0	512	515	0	582	31	0	
4	0	0	0	0	511	513	0	616	31	0	
5	0	0	0	0	511	512	0	650	32	0	
6	0	0	0	0	512	511	0	696	32	0	
7	0	0	0	0	505	512	0	763	32	0	
8	0	0	0	0	512	511	1	858	32	0	
9	0	0	0	0	507	511	0	919	32	0	
10	0	0	0	0	515	513	0	944	32	0	
11	0	0	0	0	508	511	0	932	32	0	
12	0	0	0	0	508	511	1	913	32	0	
13	0	0	0	0	512	510	0	887	32	0	
14	0	0	0	0	512	512	0	851	32	0	
15	0	0	0	0	514	512	0	817	32	0	
0	0	0	0	0	509	511	1	824	32	0	
1	0	0	0	0	514	510	0	846	32	0	
2	0	0	0	0	508	511	0	863	32	0	
3	0	0	0	0	516	513	0	878	32	0	
4	0	0	0	0	504	512	1	888	32	0	
5	0	0	0	0	501	512	0	891	32	0	
6	0	0	0	0	508	511	0	885	32	0	
7	0	0	0	0	505	512	0	880	32	0	
8	0	0	0	0	509	510	0	887	32	0	
9	0	0	0	0	513	508	0	880	32	0	
10	0	0	0	0	508	510	0	875	32	0	
11	0	0	0	0	511	511	0	854	32	0	
12	0	0	0	0	514	510	1	821	32	0	
13	0	0	0	0	512	511	0	809	32	0	
14	0	0	0	0	512	513	0	818	32	0	
15	0	0	0	0	502	513	0	835	32	0	
0	0	0	0	0	514	515	1	852	32	0	
1	0	0	0	0	506	511	0	865	32	0	
2	0	0	0	0	515	512	0	866	32	0	
3	0	0	0	0	508	513	0	835	32	0	
4	0	0	0	0	506	512	1	782	32	0	
5	0	0	0	0	512	512	0	732	32	0	
6	0	0	0	0	509	511	0	723	32	0	
7	0	0	0	0	507	512	0	757	32	0	
8	0	0	0	0	505	513	1	802	32	0	
9	0	0	0	0	511	513	0	863	32	0	
10	0	0	0	0	512	514	0	954	32	0	
11	0	0	0	0	513	514	0	1018	32	0	
12	0	0	0	0	515	511	1	1019	32	0	
13	0	0	0	0	511	512	0	1018	32	0	
14	0	0	0	0	507	511	0	1018	32	0	
15	0	0	0	0	510	511	0	1018	32	0	
0	0	0	0	0	504	511	1	1019	31	0	
1	0	0	0	0	517	510	0	1018	32	0	
2	0	0	0	0	507	509	0	1018	32	0	
3	0	0	0	0	511	511	0	1018	32	0	
4	0	0	0	0	509	510	1	1019	32	0	
5	0	0	0	0	502	511	0	1018	32	0	
6	0	0	0	0	509	510	0	1018	32	0	
7	0	0	0	0	514	511	0	1018	32	0	
8	0	0	0	0	511	510	1	1019	32	0	
9	0	0	0	0	508	510	0	1018	32	0	
10	0	0	0	0	508	511	0	1018	32	0	
11	0	0	0	0	514	514	0	1018	32	0	
12	0	0	0	0	517	514	1	1019	33	0	
13	0	0	0	0	510	510	0	1018	33	0	
14	0	0	0	0	511	509	0	1018	33	0	
15	0	0	0	0	513	509	0	1018	32	0	
0	0	0	0	0	502	509	1	1018	32	0	
1	0	0	0	0	512	511	0	1018	32	0	
2	0	0	0	0	507	512	0	1018	32	0	
3	0	0	0	0	509	512	0	1018	32	0	
4	0	0	0	0	512	510	1	1018	32	0	
5	0	0	0	0	508	512	0	1018	32	0	
6	0	0	0	0	513	513	0	1018	32	0	
7	0	0	0	0	515	512	0	1018	32	0	
8	0	0	0	0	508	510	1	1019	32	0	
9	0	0	0	0	512	511	0	1018	32	0	
10	0	0	0	0	510	512	0	1018	32	0	
11	0	0	0	0	507	512	0	1018	32	0	
12	0	0	0	0	506	513	0	1018	32	0	
13	0	0	0	0	504	515	0	1018	32	0	
14	0	0	0	0	507	513	0	1018	32	0	
15	0	0	0	0	508	514	0	1018	32	0	
0	0	0	0	0	515	512	1	1018	32	0	
1	0	0	0	0	516	513	0	1018	32	0	
2	0	0	0	0	513	513	0	1018	32	0	
3	0	0	0	0	514	512	0	1018	32	0	
4	0	0	0	0	508	512	1	1018	32	0	
5	0	0	0	0	510	512	0	1018	32	0	
6	0	0	0	0	516	512	0	1018	32	0	
7	0	0	0	0	510	511	0	1018	32	0	
8	0	0	0	0	504	512	1	1018	32	0	
9	0	0	0	0	508	512	0	1018	32	0	
10	0	0	0	0	508	510	0	1018	32	0	
11	0	0	0	0	512	511	0	1018	32	0	
12	0	0	0	0	503	511	1	1018	32	0	
13	0	0	0	0	504	513	0	1018	32	0	
14	0	0	0	0	507	511	0	1018	32	0	
15	0	0	0	0	509	512	0	1018	32	0	
0	0	0	0	0	518	513	1	1019	32	0	
1	0	0	0	0	512	513	0	1018	32	0	
2	0	0	0	0	512	514	0	1018	32	0	
3	0	0	0	0	515	513	0	1018	32	0	
4	0	0	0	0	507	511	1	1019	32	0	
5	0	0	0	0	511	511	0	1018	32	0	
6	0	0	0	0	514	513	0	1018	32	0	
7	0	0	0	0	507	514	0	1018	32	0	
8	0	0	0	0	513	513	1	1019	31	0	
9	0	0	0	0	507	512	0	1018	32	0	
10	0	0	0	0	512	512	0	1018	31	0	
11	0	0	0	0	506	512	0	1018	30	0	
12	0	0	0	0	505	511	1	1019	30	0	
13	0	0	0	0	510	511	0	1018	30	0	
14	0	0	0	0	513	513	0	1018	30	0	
15	0	0	0	0	512	514	0	1018	31	0	
0	0	0	0	0	515	515	1	1019	32	0	
1	0	0	0	0	507	513	0	1018	32	0	
2	0	0	0	0	506	513	0	1018	33	0	
3	0	0	0	0	519	513	0	1018	32	0	
4	0	0	0	0	514	514	1	1019	33	0	
5	0	0	0	0	515	514	0	1018	32	0	
6	0	0	0	0	511	514	0	1018	32	0	
7	0	0	0	0	510	517	0	1018	33	0	
8	0	0	0	0	514	515	1	1019	34	0	
9	0	0	0	0	503	514	0	1018	34	0	
10	0	0	0	0	511	515	0	1018	35	0	
11	0	0	0	0	505	515	0	1018	34	0	
12	0	0	0	0	511	513	1	1019	33	0	
13	0	0	0	0	513	513	0	1018	33	0	
14	0	0	0	0	514	512	0	1018	32	0	
15	0	0	0	0	510	512	0	1018	32	0	
0	0	0	0	0	509	512	1	1019	31	0	
1	0	0	0	0	514	511	0	1018	32	0	
2	0	0	0	0	510	510	0	1018	32	0	
3	0	0	0	0	502	510	0	1018	32	0	
4	0	0	0	0	509	511	1	1018	31	0	
5	0	0	0	0	510	512	0	1018	31	0	
6	0	0	0	0	512	512	0	1018	31	0	
7	0	0	0	0	508	513	0	1018	31	0	
8	0	0	0	0	509	511	1	1017	31	0	
9	0	0	0	0	504	509	0	1018	31	0	
10	0	0	0	0	508	510	0	1018	32	0	
11	0	0	0	0	519	512	0	1018	33	0	
12	0	0	0	0	510	511	1	1019	33	0	
13	0	0	0	0	508	510	0	1018	33	0	
14	0	0	0	0	516	512	0	1018	33	0	
15	0	0	0	0	515	513	0	1018	33	0	
0	0	0	0	0	511	511	1	1018	32	0	
1	0	0	0	0	506	512	0	1018	32	0	
2	0	0	0	0	509	511	0	1018	31	0	
3	0	0	0	0	512	512	0	1018	31	0	
4	0	0	0	0	510	512	1	1019	31	0	
5	0	0	0	0	518	512	0	1018	32	0	
6	0	0	0	0	505	513	0	1018	32	0	
7	0	0	0	0	512	514	0	1018	32	0	
8	0	0	0	0	510	514	1	1019	32	0	
9	0	0	0	0	506	514	0	1018	32	0	
10	0	0	0	0	512	515	0	1018	31	0	
11	0	0	0	0	511	515	0	988	31	0	
12	0	0	0	0	509	515	1	979	30	0	
13	0	0	0	0	511	514	0	958	30	0	
14	0	0	0	0	510	515	0	934	30	0	
15	0	0	0	0	512	516	0	911	31	0	
0	0	0	0	0	510	515	1	892	31	0	
1	0	0	0	0	508	514	0	887	32	0	
2	0	0	0	0	506	513	0	916	32	0	
3	0	0	0	0	510	515	0	928	32	0	
4	0	0	0	0	520	513	1	944	31	0	
5	0	0	0	0	515	512	0	945	31	0	
6	0	0	0	0	511	512	0	953	31	0	
7	0	0	0	0	510	512	0	948	31	0	
8	0	0	0	0	508	512	1	954	32	0	
9	0	0	0	0	508	513	0	974	32	0	
10	0	0	0	0	503	513	0	1006	33	0	
11	0	0	0	0	507	513	0	1018	32	0	
12	0	0	0	0	509	512	1	1019	32	0	
13	0	0	0	0	512	511	0	1018	32	0	
14	0	0	0	0	507	511	0	1018	31	0	
15	0	0	0	0	512	512	0	1018	31	0	
0	0	0	0	0	514	512	1	1019	31	0	
1	0	0	0	0	507	511	0	1018	30	0	
2	0	0	0	0	513	513	0	1018	30	0	
3	0	0	0	0	512	513	0	1018	30	0	
4	0	0	0	0	514	513	1	1019	31	0	
5	0	0	0	0	512	514	0	952	31	0	
6	0	0	0	0	509	513	0	911	31	0	
7	0	0	0	0	511	513	0	881	31	0	
8	0	0	0	0	506	513	1	856	32	0	
9	0	0	0	0	506	512	0	845	32	0	
10	0	0	0	0	504	511	0	844	32	0	
11	0	0	0	0	512	511	0	839	32	0	
12	0	0	0	0	513	510	1	839	33	0	
13	0	0	0	0	511	509	0	842	33	0	
14	0	0	0	0	508	511	0	828	33	0	
15	0	0	0	0	508	511	0	823	33	0	
0	0	0	0	0	510	511	1	832	32	0	
1	0	0	0	0	512	510	0	854	32	0	
2	0	0	0	0	509	511	0	865	32	0	
3	0	0	0	0	504	511	0	874	31	0	
4	0	0	0	0	512	511	1	882	31	0	
5	0	0	0	0	512	512	0	891	31	0	
6	0	0	0	0	512	512	0	891	31	0	
7	0	0	0	0	521	510	0	882	32	0	
8	0	0	0	0	505	512	1	903	33	0	
9	0	0	0	0	505	513	0	928	34	0	
10	0	0	0	0	511	514	0	922	35	0	
11	0	0	0	0	511	513	0	897	34	0	
12	0	0	0	0	514	511	1	877	33	0	
13	0	0	0	0	504	510	0	860	32	0	
14	0	0	0	0	512	511	0	856	31	0	
15	0	0	0	0	510	510	0	839	32	0	
0	0	0	0	0	506	511	1	812	32	0	
1	0	0	0	0	513	511	0	784	33	0	
2	0	0	0	0	519	512	0	769	33	0	
3	0	0	0	0	512	512	0	766	33	0	
4	0	0	0	0	498	513	1	739	32	0	
5	0	0	0	0	510	513	0	728	31	0	
6	0	0	0	0	510	512	0	735	30	0	
7	0	0	0	0	506	513	0	738	30	0	
8	0	0	0	0	517	512	1	739	30	0	
9	0	0	0	0	515	512	0	737	31	0	
10	0	0	0	0	513	513	0	731	31	0	
11	0	0	0	0	513	513	0	728	31	0	
12	0	0	0	0	511	513	1	745	31	0	
13	0	0	0	0	509	513	0	753	32	0	
14	0	0	0	0	510	512	0	741	32	0	
15	0	0	0	0	502	512	0	718	32	0	
0	0	0	0	0	512	513	1	709	31	0	
1	0	0	0	0	507	509	0	717	31	0	
2	0	0	0	0	511	510	0	688	31	0	
3	0	0	0	0	511	510	0	665	30	0	
4	0	0	0	0	508	508	1	679	30	0	
5	0	0	0	0	502	508	0	713	31	0	
6	0	0	0	0	511	510	0	742	32	0	
7	0	0	0	0	510	511	0	743	33	0	
8	0	0	0	0	511	510	1	700	33	0	
9	0	0	0	0	503	511	0	655	33	0	
10	0	0	0	0	509	511	0	634	32	0	
11	0	0	0	0	511	513	0	655	31	0	
12	0	0	0	0	512	512	0	669	31	0	
13	0	0	0	0	512	511	0	671	32	0	
14	0	0	0	0	516	512	0	668	32	0	
15	0	0	0	0	507	511	0	650	32	0	
0	0	0	0	0	512	512	1	637	33	0	
1	0	0	0	0	517	513	0	662	34	0	
2	0	0	0	0	512	511	0	690	34	0	
3	0	0	0	0	506	511	0	695	33	0	
4	0	0	0	0	511	511	1	661	33	0	
5	0	0	0	0	504	510	0	630	33	0	
6	0	0	0	0	513	510	0	634	33	0	
7	0	0	0	0	508	511	0	663	33	0	
8	0	0	0	0	509	509	1	674	33	0	
9	0	0	0	0	513	509	0	689	33	0	
10	0	0	0	0	513	511	0	705	33	0	
11	0	0	0	0	513	513	0	715	33	0	
12	0	0	0	0	512	512	1	711	33	0	
13	0	0	0	0	509	514	0	714	32	0	
14	0	0	0	0	510	513	0	718	31	0	
15	0	0	0	0	514	514	0	709	31	0	
0	0	0	0	0	514	513	1	696	30	0	
1	0	0	0	0	509	512	0	702	31	0	
2	0	0	0	0	503	515	0	715	31	0	
3	0	0	0	0	504	516	0	727	32	0	
4	0	0	0	0	507	515	1	712	34	0	
5	0	0	0	0	513	512	0	696	35	0	
6	0	0	0	0	513	513	0	704	35	0	
7	0	0	0	0	511	513	0	747	34	0	
8	0	0	0	0	510	514	1	779	33	0	
9	0	0	0	0	510	512	0	765	32	0	
10	0	0	0	0	511	511	0	743	32	0	
11	0	0	0	0	503	511	0	740	31	0	
12	0	0	0	0	513	511	1	759	32	0	
13	0	0	0	0	509	511	0	755	33	0	
14	0	0	0	0	511	512	0	736	33	0	
15	0	0	0	0	511	513	0	727	33	0	
0	0	0	0	0	500	511	1	721	32	0	
1	0	0	0	0	509	511	0	710	32	0	
2	0	0	0	0	515	512	0	693	30	0	
3	0	0	0	0	515	513	0	671	30	0	
4	0	0	0	0	508	511	0	652	31	0	
5	0	0	0	0	512	512	0	640	31	0	
6	0	0	0	0	509	513	0	639	31	0	
7	0	0	0	0	508	514	0	649	31	0	
8	0	0	0	0	511	511	1	647	32	0	
9	0	0	0	0	513	512	0	659	33	0	
10	0	0	0	0	513	511	0	671	33	0	
11	0	0	0	0	511	511	0	672	33	0	
12	0	0	0	0	514	509	0	657	34	0	
13	0	0	0	0	502	511	0	649	34	0	
14	0	0	0	0	509	512	0	675	34	0	
15	0	0	0	0	510	513	0	707	33	0	
0	0	0	0	0	504	511	1	713	32	0	
1	0	0	0	0	512	510	0	729	32	0	
2	0	0	0	0	505	510	0	739	32	0	
3	0	0	0	0	503	510	0	728	32	0	
4	0	0	0	0	519	511	1	703	32	0	
5	0	0	0	0	519	510	0	672	31	0	
6	0	0	0	0	506	510	0	629	30	0	
7	0	0	0	0	507	509	0	589	32	0	
8	0	0	0	0	508	508	0	590	35	0	
9	0	0	0	0	512	508	0	624	37	0	
10	0	0	0	0	509	510	0	675	36	0	
11	0	0	0	0	513	508	0	721	34	0	
12	0	0	0	0	516	508	1	733	32	0	
13	0	0	0	0	504	508	0	718	31	0	
14	0	0	0	0	516	510	0	699	30	0	
15	0	0	0	0	510	512	0	681	32	0	
0	0	0	0	0	511	511	1	679	34	0	
1	0	0	0	0	506	510	0	682	35	0	
2	0	0	0	0	504	510	0	686	34	0	
3	0	0	0	0	510	511	0	679	31	0	
4	0	0	0	0	506	510	1	660	29	0	
5	0	0	0	0	502	510	0	613	28	0	
6	0	0	0	0	510	510	0	562	28	0	
7	0	0	0	0	512	512	0	567	32	0	
8	0	0	0	0	510	513	1	585	35	0	
9	0	0	0	0	512	512	0	620	35	0	
10	0	0	0	0	513	512	0	659	32	0	
11	0	0	0	0	512	511	0	690	29	0	
12	0	0	0	0	513	513	0	719	28	0	
13	0	0	0	0	500	514	0	737	29	0	
14	0	0	0	0	509	513	0	755	30	0	
15	0	0	0	0	512	512	0	756	32	0	
0	0	0	0	0	506	511	1	728	33	0	
1	0	0	0	0	508	509	0	716	32	0	
2	0	0	0	0	517	510	0	688	30	0	
3	0	0	0	0	509	511	0	677	29	0	
4	0	0	0	0	514	510	1	689	30	0	
5	0	0	0	0	517	513	0	713	33	0	
6	0	0	0	0	508	513	0	715	36	0	
7	0	0	0	0	512	512	0	700	39	0	
8	0	0	0	0	508	511	1	699	39	0	
9	0	0	0	0	508	511	0	712	36	0	
10	0	0	0	0	504	511	0	721	32	0	
11	0	0	0	0	508	512	0	728	31	0	
12	0	0	0	0	511	513	1	717	32	0	
13	0	0	0	0	512	514	0	658	33	0	
14	0	0	0	0	512	515	0	616	33	0	
15	0	0	0	0	509	515	0	600	34	0	
0	0	0	0	0	512	513	0	571	33	0	
1	0	0	0	0	509	513	0	540	31	0	
2	0	0	0	0	509	514	0	505	29	0	
3	0	0	0	0	508	513	0	497	29	0	
4	0	0	0	0	511	513	1	493	31	0	
5	0	0	0	0	511	513	0	537	31	0	
6	0	0	0	0	511	514	0	592	31	0	
7	0	0	0	0	510	513	0	620	31	0	
8	0	0	0	0	510	513	1	642	31	0	
9	0	0	0	0	507	512	0	684	31	0	
10	0	0	0	0	511	511	0	755	33	0	
11	0	0	0	0	504	510	0	812	34	0	
12	0	0	0	0	507	511	1	825	36	0	
13	0	0	0	0	516	513	0	799	34	0	
14	0	0	0	0	507	513	0	765	32	0	
15	0	0	0	0	512	513	0	754	30	0	
0	0	0	0	0	508	512	1	728	29	0	
1	0	0	0	0	518	510	0	673	30	0	
2	0	0	0	0	511	511	0	669	30	0	
3	0	0	0	0	503	512	0	711	33	0	
4	0	0	0	0	519	511	1	722	34	0	
5	0	0	0	0	508	512	0	724	33	0	
6	0	0	0	0	511	512	0	724	30	0	
7	0	0	0	0	507	515	0	702	28	0	
8	0	0	0	0	515	511	1	664	28	0	
9	0	0	0	0	515	511	0	637	29	0	
10	0	0	0	0	508	510	0	638	31	0	
11	0	0	0	0	504	512	0	615	32	0	
12	0	0	0	0	505	511	1	587	33	0	
13	0	0	0	0	517	513	0	564	33	0	
14	0	0	0	0	512	515	0	538	32	0	
15	0	0	0	0	509	515	0	503	32	0	
0	0	0	0	0	511	513	1	495	32	0	
1	0	0	0	0	511	513	0	490	32	0	
2	0	0	0	0	512	514	0	530	32	0	
3	0	0	0	0	511	512	0	584	31	0	
4	0	0	0	0	511	511	1	646	30	0	
5	0	0	0	0	508	511	0	727	29	0	
6	0	0	0	0	509	511	0	798	29	0	
7	0	0	0	0	514	513	0	813	32	0	
8	0	0	0	0	514	512	0	820	35	0	
9	0	0	0	0	509	510	0	831	36	0	
10	0	0	0	0	505	508	0	902	35	0	
11	0	0	0	0	510	510	0	988	33	0	
12	0	0	0	0	508	508	1	1018	31	0	
13	0	0	0	0	511	508	0	1018	30	0	
14	0	0	0	0	512	508	0	1018	29	0	
15	0	0	0	0	516	510	0	1018	31	0	
0	0	0	0	0	516	510	1	1019	33	0	
1	0	0	0	0	510	509	0	1018	33	0	
2	0	0	0	0	504	511	0	1018	34	0	
3	0	0	0	0	513	511	0	1018	32	0	
4	0	0	0	0	506	512	1	1019	31	0	
5	0	0	0	0	514	511	0	1018	30	0	
6	0	0	0	0	509	511	0	1018	29	0	
7	0	0	0	0	515	515	0	1018	31	0	
8	0	0	0	0	511	516	1	1019	31	0	
9	0	0	0	0	514	515	0	1018	30	0	
10	0	0	0	0	503	514	0	1018	30	0	
11	0	0	0	0	512	513	0	1018	30	0	
12	0	0	0	0	512	513	1	1019	31	0	
13	0	0	0	0	505	515	0	1018	33	0	
14	0	0	0	0	512	513	0	1018	31	0	
15	0	0	0	0	514	513	0	1018	32	0	
0	0	0	0	0	503	512	1	1019	30	0	
1	0	0	0	0	514	513	0	1019	29	0	
2	0	0	0	0	508	514	0	1018	29	0	
3	0	0	0	0	507	514	0	1018	29	0	
4	0	0	0	0	515	515	1	1018	31	0	
5	0	0	0	0	512	515	0	1018	32	0	
6	0	0	0	0	514	515	0	1018	33	0	
7	0	0	0	0	507	514	0	1018	33	0	
8	0	0	0	0	514	514	1	1018	34	0	
9	0	0	0	0	512	515	0	1019	38	0	
10	0	0	0	0	519	518	0	1018	41	0	
11	0	0	0	0	500	516	0	1018	44	0	
12	0	0	0	0	505	514	1	1019	43	0	
13	0	0	0	0	510	514	0	1018	39	0	
14	0	0	0	0	514	512	0	1018	35	0	
15	0	0	0	0	510	515	0	1018	31	0	
0	0	0	0	0	511	515	1	1018	29	0	
1	0	0	0	0	514	515	0	1019	32	0	
2	0	0	0	0	516	515	0	1019	36	0	
3	0	0	0	0	510	515	0	1018	39	0	
4	0	0	0	0	513	514	1	1019	39	0	
5	0	0	0	0	515	513	0	1018	33	0	
6	0	0	0	0	502	514	0	1018	29	0	
7	0	0	0	0	511	515	0	1018	24	0	
8	0	0	0	0	517	516	1	1019	22	0	
9	0	0	0	0	511	515	0	1019	26	0	
10	0	0	0	0	510	516	0	1019	32	0	
11	0	0	0	0	510	517	0	1018	36	0	
12	0	0	0	0	507	516	1	1018	35	0	
13	0	0	0	0	505	515	0	1019	31	0	
14	0	0	0	0	517	513	0	1018	29	0	
15	0	0	0	0	507	515	0	1018	29	0	
0	0	0	0	0	510	517	1	1018	28	0	
1	0	0	0	0	515	514	0	1018	30	0	
2	0	0	0	0	507	514	0	1018	31	0	
3	0	0	0	0	504	514	0	1018	30	0	
4	0	0	0	0	502	512	1	1019	29	0	
5	0	0	0	0	518	513	0	1018	31	0	
6	0	0	0	0	512	514	0	1018	35	0	
7	0	0	0	0	514	515	0	1018	37	0	
8	0	0	0	0	504	513	1	1018	39	0	
9	0	0	0	0	509	511	0	1018	39	0	
10	0	0	0	0	509	510	0	1019	37	0	
11	0	0	0	0	510	511	0	1018	32	0	
12	0	0	0	0	510	512	1	1019	27	0	
13	0	0	0	0	507	511	0	1018	26	0	
14	0	0	0	0	512	510	0	1018	30	0	
15	0	0	0	0	515	511	0	1018	34	0	
0	0	0	0	0	515	511	1	1019	35	0	
1	0	0	0	0	505	508	0	1018	34	0	
2	0	0	0	0	507	511	0	1018	32	0	
3	0	0	0	0	509	509	0	1018	29	0	
4	0	0	0	0	513	511	1	1019	27	0	
5	0	0	0	0	511	510	0	1018	28	0	
6	0	0	0	0	509	509	0	1018	31	0	
7	0	0	0	0	507	512	0	1018	32	0	
8	0	0	0	0	510	511	1	1018	32	0	
9	0	0	0	0	508	510	0	1018	33	0	
10	0	0	0	0	514	510	0	1018	34	0	
11	0	0	0	0	512	512	0	1018	34	0	
12	0	0	0	0	510	512	1	1018	33	0	
13	0	0	0	0	521	510	0	1018	33	0	
14	0	0	0	0	513	509	0	1018	34	0	
15	0	0	0	0	511	510	0	1018	31	0	
0	0	0	0	0	511	509	1	1019	29	0	
1	0	0	0	0	507	510	0	1018	28	0	
2	0	0	0	0	511	511	0	1018	30	0	
3	0	0	0	0	508	512	0	1018	31	0	
4	0	0	0	0	515	513	1	1019	32	0	
5	0	0	0	0	514	511	0	1018	33	0	
6	0	0	0	0	506	512	0	1018	33	0	
7	0	0	0	0	509	514	0	1018	31	0	
8	0	0	0	0	517	513	1	1018	30	0	
9	0	0	0	0	513	512	0	1018	31	0	
10	0	0	0	0	505	513	0	1018	32	0	
11	0	0	0	0	508	515	0	1018	32	0	
12	0	0	0	0	510	514	1	1019	31	0	
13	0	0	0	0	505	513	0	1018	31	0	
14	0	0	0	0	511	513	0	1018	31	0	
15	0	0	0	0	512	514	0	1018	30	0	
0	0	0	0	0	511	515	1	1019	30	0	
1	0	0	0	0	506	514	0	1018	32	0	
2	0	0	0	0	512	512	0	1018	33	0	
3	0	0	0	0	511	513	0	932	32	0	
4	0	0	0	0	512	514	1	847	31	0	
5	0	0	0	0	517	512	0	794	29	0	
6	0	0	0	0	507	511	0	826	30	0	
7	0	0	0	0	511	513	0	898	32	0	
8	0	0	0	0	507	511	1	956	34	0	
9	0	0	0	0	510	513	0	939	36	0	
10	0	0	0	0	506	513	0	911	37	0	
11	0	0	0	0	506	515	0	884	35	0	
12	0	0	0	0	511	513	1	868	33	0	
13	0	0	0	0	508	512	0	895	32	0	
14	0	0	0	0	512	513	0	893	31	0	
15	0	0	0	0	515	514	0	876	31	0	
0	0	0	0	0	508	512	0	841	31	0	
1	0	0	0	0	508	514	0	798	33	0	
2	0	0	0	0	511	513	0	778	33	0	
3	0	0	0	0	510	515	0	777	31	0	
4	0	0	0	0	510	514	1	689	30	0	
5	0	0	0	0	514	512	0	601	30	0	
6	0	0	0	0	507	512	0	586	30	0	
7	0	0	0	0	508	512	0	571	30	0	
8	0	0	0	0	510	513	1	566	31	0	
9	0	0	0	0	510	511	0	596	32	0	
10	0	0	0	0	508	511	0	654	33	0	
11	0	0	0	0	510	511	0	703	33	0	
12	0	0	0	0	512	509	1	691	34	0	
13	0	0	0	0	504	509	0	655	35	0	
14	0	0	0	0	510	508	0	610	35	0	
15	0	0	0	0	511	510	0	532	33	0	
0	0	0	0	0	512	511	1	508	32	0	
1	0	0	0	0	511	509	0	491	31	0	
2	0	0	0	0	510	510	0	438	30	0	
3	0	0	0	0	507	511	0	352	30	0	
4	0	0	0	0	520	510	0	286	31	0	
5	0	0	0	0	511	511	0	245	32	0	
6	0	0	0	0	506	511	0	255	32	0	
7	0	0	0	0	508	512	0	271	30	0	
8	0	0	0	0	513	510	1	281	30	0	
9	0	0	0	0	511	512	0	336	29	0	
10	0	0	0	0	515	512	0	403	28	0	
11	0	0	0	0	506	513	0	467	30	0	
12	0	0	0	0	507	512	1	539	29	0	
13	0	0	0	0	512	512	0	588	30	0	
14	0	0	0	0	511	513	0	605	30	0	
15	0	0	0	0	504	512	0	560	30	0	
0	0	0	0	0	511	512	1	480	33	0	
1	0	0	0	0	511	511	0	415	36	0	
2	0	0	0	0	511	513	0	365	39	0	
3	0	0	0	0	505	513	0	286	40	0	
4	0	0	0	0	505	511	0	159	39	0	
5	0	0	0	0	508	511	0	72	37	0	
6	0	0	0	0	514	512	0	62	34	0	
7	0	0	0	0	512	512	0	103	31	0	
8	0	0	0	0	512	512	1	142	30	0	
9	0	0	0	0	517	510	0	161	31	0	
10	0	0	0	0	509	511	0	176	34	0	
11	0	0	0	0	511	510	0	155	35	0	
12	0	0	0	0	507	510	1	92	35	0	
13	0	0	0	0	510	511	0	31	33	0	
14	0	0	0	0	509	512	0	0	29	0	
15	0	0	0	0	504	512	0	0	27	0	
0	0	0	0	0	511	515	1	0	25	0	
1	0	0	0	0	508	513	0	0	27	0	
2	0	0	0	0	512	512	0	0	29	0	
3	0	0	0	0	508	512	0	0	31	0	
4	0	0	0	0	515	511	1	0	32	0	
5	0	0	0	0	504	512	0	0	31	0	
6	0	0	0	0	511	513	0	0	32	0	
7	0	0	0	0	516	512	0	0	33	0	
8	0	0	0	0	511	513	1	0	34	0	
9	0	0	0	0	516	512	0	0	35	0	
10	0	0	0	0	513	512	0	0	34	0	
11	0	0	0	0	502	512	0	0	32	0	
12	0	0	0	0	503	512	0	0	30	0	
13	0	0	0	0	512	513	0	0	28	0	
14	0	0	0	0	512	513	0	0	29	0	
15	0	0	0	0	508	512	0	0	33	0	
0	0	0	0	0	513	510	0	0	35	0	
1	0	0	0	0	511	509	0	0	39	0	
2	0	0	0	0	515	509	0	0	39	0	
3	0	0	0	0	513	510	0	0	35	0	
4	0	0	0	0	513	508	0	0	32	0	
5	0	0	0	0	506	511	0	0	29	0	
6	0	0	0	0	511	512	0	0	28	0	
7	0	0	0	0	506	513	0	0	30	0	
8	0	0	0	0	519	514	1	0	32	0	
9	0	0	0	0	502	512	0	0	35	0	
10	0	0	0	0	507	513	0	0	38	0	
11	0	0	0	0	510	512	0	0	35	0	
12	0	0	0	0	510	513	1	0	35	0	
13	0	0	0	0	514	513	0	0	32	0	
14	0	0	0	0	509	513	0	0	29	0	
15	0	0	0	0	511	513	0	0	28	0	
0	0	0	0	0	510	511	0	0	27	0	
1	0	0	0	0	508	511	0	0	28	0	
2	0	0	0	0	511	511	0	0	29	0	
3	0	0	0	0	506	510	0	0	30	0	
4	0	0	0	0	507	511	1	0	32	0	
5	0	0	0	0	511	513	0	0	33	0	
6	0	0	0	0	511	513	0	0	33	0	
7	0	0	0	0	508	512	0	0	32	0	
8	0	0	0	0	513	511	0	0	30	0	
9	0	0	0	0	510	509	0	0	30	0	
10	0	0	0	0	508	511	0	0	29	0	
11	0	0	0	0	506	510	0	0	29	0	
12	0	0	0	0	512	509	0	0	31	0	
13	0	0	0	0	509	509	0	0	33	0	
14	0	0	0	0	512	511	0	0	36	0	
15	0	0	0	0	511	512	0	0	37	0	
0	0	0	0	0	516	513	1	0	36	0	
1	0	0	0	0	506	511	0	0	34	0	
2	0	0	0	0	508	512	0	0	32	0	
3	0	0	0	0	515	513	0	0	29	0	
4	0	0	0	0	511	512	0	0	28	0	
5	0	0	0	0	509	512	0	0	29	0	
6	0	0	0	0	506	512	0	0	29	0	
7	0	0	0	0	512	511	0	0	32	0	
8	0	0	0	0	512	510	0	0	35	0	
9	0	0	0	0	512	508	0	0	37	0	
10	0	0	0	0	513	510	0	0	37	0	
11	0	0	0	0	509	512	0	0	36	0	
12	0	0	0	0	511	511	0	0	34	0	
13	0	0	0	0	501	511	0	0	33	0	
14	0	0	0	0	513	511	0	0	30	0	
15	0	0	0	0	513	510	0	0	29	0	
0	0	0	0	0	506	509	1	0	30	0	
1	0	0	0	0	510	509	0	0	31	0	
2	0	0	0	0	519	511	0	0	33	0	
3	0	0	0	0	518	513	0	0	33	0	
4	0	0	0	0	513	512	1	0	33	0	
5	0	0	0	0	511	510	0	0	31	0	
6	0	0	0	0	510	511	0	0	28	0	
7	0	0	0	0	512	512	0	0	27	0	
8	0	0	0	0	508	511	0	0	27	0	
9	0	0	0	0	499	512	0	0	27	0	
10	0	0	0	0	512	511	0	0	30	0	
11	0	0	0	0	512	512	0	0	30	0	
12	0	0	0	0	507	511	1	0	32	0	
13	0	0	0	0	511	511	0	0	33	0	
14	0	0	0	0	508	512	0	0	31	0	
15	0	0	0	0	502	512	0	0	34	0	
0	0	0	0	0	509	511	0	0	34	0	
1	0	0	0	0	508	512	0	0	35	0	
2	0	0	0	0	513	511	0	0	34	0	
3	0	0	0	0	511	513	0	0	31	0	
4	0	0	0	0	499	511	0	0	29	0	
5	0	0	0	0	510	511	0	0	29	0	
6	0	0	0	0	517	512	0	0	28	0	
7	0	0	0	0	508	513	0	0	33	0	
8	0	0	0	0	516	514	0	0	37	0	
9	0	0	0	0	510	516	0	0	38	0	
10	0	0	0	0	510	512	0	0	38	0	
11	0	0	0	0	508	512	0	0	34	0	
12	0	0	0	0	508	512	0	0	30	0	
13	0	0	0	0	508	511	0	0	26	0	
14	0	0	0	0	505	512	0	0	25	0	
15	0	0	0	0	524	513	0	0	27	0	
0	0	0	0	0	509	511	0	0	32	0	
1	0	0	0	0	511	512	0	0	35	0	
2	0	0	0	0	514	512	0	0	34	0	
3	0	0	0	0	507	512	0	0	33	0	
4	0	0	0	0	513	511	0	0	30	0	
5	0	0	0	0	507	512	0	0	28	0	
6	0	0	0	0	510	514	0	0	27	0	
7	0	0	0	0	504	517	0	0	28	0	
8	0	0	0	0	507	515	0	0	28	0	
9	0	0	0	0	511	513	0	0	29	0	
10	0	0	0	0	508	514	0	0	28	0	
11	0	0	0	0	511	513	0	0	28	0	
12	0	0	0	0	514	512	0	0	30	0	
13	0	0	0	0	511	513	0	0	31	0	
14	0	0	0	0	509	513	0	0	33	0	
15	0	0	0	0	506	513	0	0	34	0	
0	0	0	0	0	504	515	1	0	32	0	
1	0	0	0	0	502	513	0	0	29	0	
2	0	0	0	0	508	511	0	0	26	0	
3	0	0	0	0	511	512	0	0	25	0	
4	0	0	0	0	518	512	1	0	28	0	
5	0	0	0	0	510	512	0	0	31	0	
6	0	0	0	0	515	513	0	0	33	0	
7	0	0	0	0	513	514	0	0	35	0	
8	0	0	0	0	515	514	0	0	34	0	
9	0	0	0	0	508	515	0	0	31	0	
10	0	0	0	0	513	515	0	0	29	0	
11	0	0	0	0	503	518	0	0	29	0	
12	0	0	0	0	515	517	0	0	29	0	
13	0	0	0	0	504	516	0	0	30	0	
14	0	0	0	0	509	516	0	0	31	0	
15	0	0	0	0	510	516	0	0	30	0	
0	0	0	0	0	512	514	0	0	31	0	
1	0	0	0	0	507	514	0	0	30	0	
2	0	0	0	0	511	515	0	0	31	0	
3	0	0	0	0	516	516	0	0	33	0	
4	0	0	0	0	507	513	0	0	34	0	
5	0	0	0	0	511	515	0	0	32	0	
6	0	0	0	0	512	514	0	0	31	0	
7	0	0	0	0	513	515	0	0	29	0	
8	0	0	0	0	515	514	0	0	28	0	
9	0	0	0	0	505	515	0	0	28	0	
10	0	0	0	0	511	514	0	0	30	0	
11	0	0	0	0	507	513	0	0	33	0	
12	0	0	0	0	510	513	0	0	35	0	
13	0	0	0	0	510	514	0	0	34	0	
14	0	0	0	0	513	513	0	0	32	0	
15	0	0	0	0	510	514	0	0	30	0	
0	0	0	0	0	512	513	0	0	29	0	
1	0	0	0	0	513	512	0	0	29	0	
2	0	0	0	0	505	512	0	0	31	0	
3	0	0	0	0	510	512	0	0	32	0	
4	0	0	0	0	507	512	1	0	33	0	
5	0	0	0	0	507	511	0	0	32	0	
6	0	0	0	0	516	512	0	0	31	0	
7	0	0	0	0	509	512	0	0	31	0	
8	0	0	0	0	518	511	0	0	33	0	
9	0	0	0	0	513	512	0	0	33	0	
10	0	0	0	0	507	511	0	0	33	0	
11	0	0	0	0	511	512	0	0	33	0	
12	0	0	0	0	507	511	0	0	31	0	
13	0	0	0	0	508	511	0	0	30	0	
14	0	0	0	0	510	511	0	0	29	0	
15	0	0	0	0	515	512	0	0	31	0	
0	0	0	0	0	513	511	1	0	33	0	
1	0	0	0	0	512	511	0	0	35	0	
2	0	0	0	0	512	511	0	0	35	0	
3	0	0	0	0	507	513	0	0	34	0	
4	0	0	0	0	509	512	1	0	32	0	
5	0	0	0	0	507	511	0	0	30	0	
6	0	0	0	0	508	512	0	0	30	0	
7	0	0	0	0	507	513	0	0	31	0	
8	0	0	0	0	516	515	1	0	32	0	
9	0	0	0	0	507	514	0	0	33	0	
10	0	0	0	0	507	513	0	0	33	0	
11	0	0	0	0	505	513	0	0	32	0	
12	0	0	0	0	514	511	0	0	32	0	
13	0	0	0	0	513	509	0	0	32	0	
14	0	0	0	0	508	512	0	0	32	0	
15	0	0	0	0	514	512	0	0	34	0	
0	0	0	0	0	507	512	1	0	33	0	
1	0	0	0	0	508	512	0	0	32	0	
2	0	0	0	0	510	510	0	0	31	0	
3	0	0	0	0	509	511	0	0	31	0	
4	0	0	0	0	512	513	1	0	31	0	
5	0	0	0	0	515	512	0	0	32	0	
6	0	0	0	0	510	514	0	0	34	0	
7	0	0	0	0	505	513	0	0	35	0	
8	0	0	0	0	510	512	0	0	34	0	
9	0	0	0	0	514	512	0	0	32	0	
10	0	0	0	0	517	510	0	0	31	0	
11	0	0	0	0	517	511	0	0	31	0	
12	0	0	0	0	514	512	0	0	31	0	
13	0	0	0	0	509	510	0	0	32	0	
14	0	0	0	0	508	510	0	0	33	0	
15	0	0	0	0	508	511	0	0	34	0	
0	0	0	0	0	515	512	1	0	33	0	
1	0	0	0	0	508	512	0	0	32	0	
2	0	0	0	0	507	511	0	0	32	0	
3	0	0	0	0	508	510	0	0	32	0	
4	0	0	0	0	512	510	0	0	33	0	
5	0	0	0	0	508	510	0	0	33	0	
6	0	0	0	0	511	510	0	0	33	0	
7	0	0	0	0	504	512	0	0	32	0	
8	0	0	0	0	514	511	1	0	31	0	
9	0	0	0	0	514	510	0	0	31	0	
10	0	0	0	0	515	510	0	0	32	0	
11	0	0	0	0	508	511	0	0	33	0	
12	0	0	0	0	507	511	1	0	34	0	
13	0	0	0	0	510	511	0	0	34	0	
14	0	0	0	0	511	512	0	0	33	0	
15	0	0	0	0	511	513	0	0	32	0	
0	0	0	0	0	514	515	1	0	30	0	
1	0	0	0	0	504	513	0	0	31	0	
2	0	0	0	0	513	511	0	0	32	0	
3	0	0	0	0	505	514	0	0	33	0	
4	0	0	0	0	506	512	0	0	33	0	
5	0	0	0	0	512	512	0	0	33	0	
6	0	0	0	0	515	512	0	0	32	0	
7	0	0	0	0	512	512	0	0	32	0	
8	0	0	0	0	514	513	1	0	31	0	
9	0	0	0	0	512	513	0	0	32	0	
10	0	0	0	0	506	511	0	0	33	0	
11	0	0	0	0	509	513	0	0	33	0	
12	0	0	0	0	510	513	1	0	33	0	
13	0	0	0	0	510	513	0	0	31	0	
14	0	0	0	0	517	513	0	0	31	0	
15	0	0	0	0	511	514	0	0	31	0	
0	0	0	0	0	509	511	0	0	32	0	
1	0	0	0	0	503	510	0	0	33	0	
2	0	0	0	0	509	513	0	0	34	0	
3	0	0	0	0	511	512	0	0	33	0	
4	0	0	0	0	507	512	1	0	32	0	
5	0	0	0	0	508	513	0	0	31	0	
6	0	0	0	0	508	512	0	0	30	0	
7	0	0	0	0	515	514	0	0	31	0	
8	0	0	0	0	508	513	0	0	32	0	
9	0	0	0	0	512	513	0	0	33	0	
10	0	0	0	0	508	510	0	0	33	0	
11	0	0	0	0	515	512	0	0	32	0	
12	0	0	0	0	509	510	0	0	31	0	
13	0	0	0	0	512	511	0	0	31	0	
14	0	0	0	0	512	511	0	0	31	0	
15	0	0	0	0	508	512	0	0	32	0	
0	0	0	0	0	509	509	0	0	32	0	
1	0	0	0	0	515	510	0	0	32	0	
2	0	0	0	0	506	512	0	0	32	0	
3	0	0	0	0	510	512	0	0	31	0	
4	0	0	0	0	509	513	0	0	31	0	
5	0	0	0	0	513	515	0	0	31	0	
6	0	0	0	0	506	516	0	18	32	0	
7	0	0	0	0	505	516	0	0	33	0	
8	0	0	0	0	507	517	1	0	32	0	
9	0	0	0	0	510	515	0	0	32	0	
10	0	0	0	0	516	516	0	0	32	0	
11	0	0	0	0	513	514	0	0	31	0	
12	0	0	0	0	512	512	0	0	31	0	
13	0	0	0	0	513	513	0	0	32	0	
14	0	0	0	0	507	512	0	0	33	0	
15	0	0	0	0	514	512	0	0	33	0	
0	0	0	0	0	506	513	1	0	32	0	
1	0	0	0	0	516	510	0	0	32	0	
2	0	0	0	0	511	513	0	22	32	0	
3	0	0	0	0	503	514	0	0	31	0	
4	0	0	0	0	510	512	1	0	32	0	
5	0	0	0	0	509	509	0	0	33	0	
6	0	0	0	0	508	508	0	0	33	0	
7	0	0	0	0	510	508	0	0	33	0	
8	0	0	0	0	511	508	1	0	32	0	
9	0	0	0	0	510	508	0	75	32	0	
10	0	0	0	0	509	510	0	147	32	0	
11	0	0	0	0	508	511	0	183	33	0	
12	0	0	0	0	508	508	0	188	33	0	
13	0	0	0	0	514	508	0	168	34	0	
14	0	0	0	0	510	508	0	143	33	0	
15	0	0	0	0	509	511	0	129	32	0	
0	0	0	0	0	514	512	0	107	32	0	
1	0	0	0	0	508	512	0	80	32	0	
2	0	0	0	0	510	512	0	75	33	0	
3	0	0	0	0	512	512	0	83	33	0	
4	0	0	0	0	508	510	0	61	34	0	
5	0	0	0	0	513	512	0	38	34	0	
6	0	0	0	0	511	513	0	22	33	0	
7	0	0	0	0	512	513	0	17	32	0	
8	0	0	0	0	506	512	0	23	32	0	
9	0	0	0	0	510	514	0	36	32	0	
10	0	0	0	0	510	513	0	44	33	0	
11	0	0	0	0	510	513	0	59	34	0	
12	0	0	0	0	512	514	1	42	34	0	
13	0	0	0	0	505	512	0	33	33	0	
14	0	0	0	0	509	512	0	75	33	0	
15	0	0	0	0	508	512	0	128	32	0	
0	0	0	0	0	512	513	1	154	32	0	
1	0	0	0	0	509	511	0	156	33	0	
2	0	0	0	0	507	511	0	173	34	0	
3	0	0	0	0	513	512	0	171	34	0	
4	0	0	0	0	504	512	1	124	34	0	
5	0	0	0	0	507	514	0	71	33	0	
6	0	0	0	0	514	515	0	52	32	0	
7	0	0	0	0	512	515	0	59	32	0	
8	0	0	0	0	507	516	1	62	33	0	
9	0	0	0	0	504	513	0	58	34	0	
10	0	0	0	0	516	514	0	73	34	0	
11	0	0	0	0	514	515	0	115	33	0	
12	0	0	0	0	507	513	0	152	33	0	
13	0	0	0	0	512	514	0	181	32	0	
14	0	0	0	0	508	517	0	211	32	0	
15	0	0	0	0	510	515	0	217	33	0	
0	0	0	0	0	508	513	0	196	33	0	
1	0	0	0	0	512	513	0	190	34	0	
2	0	0	0	0	512	514	0	182	34	0	
3	0	0	0	0	509	515	0	187	33	0	
4	0	0	0	0	510	513	0	198	32	0	
5	0	0	0	0	515	512	0	205	32	0	
6	0	0	0	0	510	513	0	207	33	0	
7	0	0	0	0	510	513	0	203	33	0	
8	0	0	0	0	511	511	0	195	33	0	
9	0	0	0	0	514	511	0	215	33	0	
10	0	0	0	0	510	513	0	228	33	0	
11	0	0	0	0	507	512	0	241	32	0	
12	0	0	0	0	510	513	1	261	32	0	
13	0	0	0	0	513	512	0	254	32	0	
14	0	0	0	0	509	512	0	248	33	0	
15	0	0	0	0	508	513	0	245	33	0	
0	0	0	0	0	509	514	1	263	33	0	
1	0	0	0	0	508	514	0	297	33	0	
2	0	0	0	0	510	515	0	326	32	0	
3	0	0	0	0	508	513	0	340	32	0	
4	0	0	0	0	510	513	1	349	32	0	
5	0	0	0	0	508	511	0	337	33	0	
6	0	0	0	0	505	512	0	323	33	0	
7	0	0	0	0	515	513	0	314	33	0	
8	0	0	0	0	512	513	1	305	32	0	
9	0	0	0	0	506	512	0	295	32	0	
10	0	0	0	0	512	510	0	292	32	0	
11	0	0	0	0	511	510	0	301	32	0	
12	0	0	0	0	512	512	0	291	33	0	
13	0	0	0	0	506	510	0	279	33	0	
14	0	0	0	0	511	510	0	275	32	0	
15	0	0	0	0	516	511	0	253	32	0	
0	0	0	0	0	513	512	1	240	32	0	
1	0	0	0	0	512	512	0	235	32	0	
2	0	0	0	0	500	513	0	224	32	0	
3	0	0	0	0	505	514	0	219	32	0	
4	0	0	0	0	508	512	1	231	33	0	
5	0	0	0	0	504	511	0	266	33	0	
6	0	0	0	0	512	510	0	304	32	0	
7	0	0	0	0	512	510	0	321	32	0	
8	0	0	0	0	508	512	0	334	32	0	
9	0	0	0	0	512	512	0	348	32	0	
10	0	0	0	0	508	512	0	345	32	0	
11	0	0	0	0	513	513	0	327	32	0	
12	0	0	0	0	513	512	1	277	33	0	
13	0	0	0	0	508	513	0	239	33	0	
14	0	0	0	0	507	514	0	215	32	0	
15	0	0	0	0	513	512	0	219	32	0	
0	0	0	0	0	503	511	0	254	32	0	
1	0	0	0	0	522	513	0	303	32	0	
2	0	0	0	0	514	512	0	337	32	0	
3	0	0	0	0	511	513	0	364	32	0	
4	0	0	0	0	502	512	1	384	32	0	
5	0	0	0	0	505	511	0	397	32	0	
6	0	0	0	0	509	509	0	409	31	0	
7	0	0	0	0	515	510	0	414	32	0	
8	0	0	0	0	508	509	0	390	32	0	
9	0	0	0	0	510	510	0	363	32	0	
10	0	0	0	0	515	511	0	338	33	0	
11	0	0	0	0	508	513	0	313	33	0	
12	0	0	0	0	511	511	0	299	32	0	
13	0	0	0	0	515	513	0	297	32	0	
14	0	0	0	0	512	511	0	292	31	0	
15	0	0	0	0	505	513	0	297	32	0	
0	0	0	0	0	509	513	1	314	32	0	
1	0	0	0	0	509	513	0	323	32	0	
2	0	0	0	0	508	512	0	325	33	0	
3	0	0	0	0	513	512	0	330	32	0	
4	0	0	0	0	516	512	1	326	32	0	
5	0	0	0	0	506	513	0	320	32	0	
6	0	0	0	0	511	514	0	322	31	0	
7	0	0	0	0	515	515	0	336	32	0	
8	0	0	0	0	511	514	1	354	32	0	
9	0	0	0	0	505	513	0	370	32	0	
10	0	0	0	0	516	513	0	385	32	0	
11	0	0	0	0	510	513	0	393	32	0	
12	0	0	0	0	508	512	0	393	32	0	
13	0	0	0	0	505	513	0	403	32	0	
14	0	0	0	0	504	511	0	425	32	0	
15	0	0	0	0	508	510	0	454	32	0	
0	0	0	0	0	512	511	1	480	32	0	
1	0	0	0	0	513	511	0	512	32	0	
2	0	0	0	0	513	511	0	542	32	0	
3	0	0	0	0	510	511	0	573	31	0	
4	0	0	0	0	511	511	0	593	32	0	
5	0	0	0	0	512	511	0	601	32	0	
6	0	0	0	0	512	512	0	600	32	0	
7	0	0	0	0	510	513	0	596	32	0	
8	0	0	0	0	511	517	1	603	32	0	
9	0	0	0	0	512	515	0	615	32	0	
10	0	0	0	0	505	514	0	618	32	0	
11	0	0	0	0	512	515	0	611	31	0	
12	0	0	0	0	517	514	0	591	32	0	
13	0	0	0	0	513	515	0	572	32	0	
14	0	0	0	0	507	514	0	561	32	0	
15	0	0	0	0	500	512	0	550	32	0	
0	0	0	0	0	513	513	1	544	31	0	
1	0	0	0	0	511	510	0	526	31	0	
2	0	0	0	0	510	511	0	518	32	0	
3	0	0	0	0	510	512	0	512	32	0	
4	0	0	0	0	507	514	1	515	32	0	
5	0	0	0	0	505	514	0	522	32	0	
6	0	0	0	0	519	514	0	536	32	0	
7	0	0	0	0	509	515	0	566	32	0	
8	0	0	0	0	516	512	0	597	31	0	
9	0	0	0	0	512	512	0	621	31	0	
10	0	0	0	0	507	513	0	643	31	0	
11	0	0	0	0	509	513	0	658	32	0	
12	0	0	0	0	510	514	1	658	32	0	
13	0	0	0	0	509	514	0	651	32	0	
14	0	0	0	0	508	516	0	645	31	0	
15	0	0	0	0	512	515	0	644	31	0	
0	0	0	0	0	508	514	1	644	31	0	
1	0	0	0	0	507	513	0	658	31	0	
2	0	0	0	0	511	514	0	676	32	0	
3	0	0	0	0	510	515	0	696	32	0	
4	0	0	0	0	511	515	1	715	32	0	
5	0	0	0	0	506	514	0	728	32	0	
6	0	0	0	0	514	516	0	733	31	0	
7	0	0	0	0	508	517	0	729	31	0	
8	0	0	0	0	505	515	1	719	31	0	
9	0	0	0	0	508	513	0	707	31	0	
10	0	0	0	0	507	514	0	697	32	0	
11	0	0	0	0	508	515	0	692	32	0	
12	0	0	0	0	511	515	1	689	32	0	
13	0	0	0	0	511	514	0	684	31	0	
14	0	0	0	0	513	514	0	680	31	0	
15	0	0	0	0	515	513	0	677	31	0	
0	0	0	0	0	508	513	0	672	31	0	
